1.761718750000000000e+03
1.617187500000000000e+03
1.367187500000000000e+03
7.226562500000000000e+02
7.656250000000000000e+02
7.539062500000000000e+02
7.382812500000000000e+02
1.546875000000000000e+03
7.890625000000000000e+02
7.812500000000000000e+02
1.601562500000000000e+03
8.125000000000000000e+02
7.851562500000000000e+02
7.812500000000000000e+02
7.773437500000000000e+02
2.367187500000000000e+03
7.929687500000000000e+02
8.242187500000000000e+02
8.281250000000000000e+02
8.320312500000000000e+02
8.125000000000000000e+02
7.890625000000000000e+02
8.203125000000000000e+02
8.398437500000000000e+02
8.281250000000000000e+02
8.164062500000000000e+02
8.007812500000000000e+02
8.046875000000000000e+02
7.968750000000000000e+02
8.554687500000000000e+02
7.968750000000000000e+02
7.890625000000000000e+02
7.773437500000000000e+02
7.890625000000000000e+02
7.851562500000000000e+02
7.695312500000000000e+02
7.812500000000000000e+02
8.125000000000000000e+02
8.085937500000000000e+02
7.734375000000000000e+02
7.890625000000000000e+02
7.578125000000000000e+02
7.226562500000000000e+02
7.539062500000000000e+02
7.148437500000000000e+02
7.382812500000000000e+02
7.187500000000000000e+02
6.953125000000000000e+02
7.148437500000000000e+02
7.421875000000000000e+02
7.421875000000000000e+02
7.109375000000000000e+02
7.617187500000000000e+02
7.695312500000000000e+02
7.734375000000000000e+02
7.851562500000000000e+02
7.812500000000000000e+02
8.125000000000000000e+02
8.164062500000000000e+02
8.281250000000000000e+02
8.046875000000000000e+02
7.968750000000000000e+02
7.500000000000000000e+02
8.046875000000000000e+02
8.085937500000000000e+02
8.085937500000000000e+02
8.203125000000000000e+02
8.398437500000000000e+02
8.085937500000000000e+02
8.437500000000000000e+02
8.046875000000000000e+02
8.242187500000000000e+02
8.515625000000000000e+02
8.515625000000000000e+02
8.320312500000000000e+02
8.359375000000000000e+02
8.867187500000000000e+02
8.750000000000000000e+02
8.906250000000000000e+02
9.179687500000000000e+02
9.218750000000000000e+02
8.906250000000000000e+02
8.945312500000000000e+02
9.257812500000000000e+02
9.648437500000000000e+02
9.375000000000000000e+02
9.257812500000000000e+02
9.375000000000000000e+02
9.218750000000000000e+02
9.101562500000000000e+02
8.828125000000000000e+02
9.218750000000000000e+02
8.906250000000000000e+02
9.296875000000000000e+02
8.593750000000000000e+02
9.257812500000000000e+02
9.296875000000000000e+02
8.906250000000000000e+02
9.335937500000000000e+02
9.335937500000000000e+02
9.570312500000000000e+02
9.218750000000000000e+02
9.531250000000000000e+02
9.023437500000000000e+02
8.750000000000000000e+02
8.593750000000000000e+02
8.789062500000000000e+02
9.218750000000000000e+02
8.828125000000000000e+02
9.335937500000000000e+02
9.375000000000000000e+02
9.687500000000000000e+02
1.011718750000000000e+03
9.921875000000000000e+02
9.726562500000000000e+02
9.414062500000000000e+02
9.492187500000000000e+02
9.375000000000000000e+02
9.453125000000000000e+02
9.296875000000000000e+02
9.414062500000000000e+02
9.492187500000000000e+02
9.335937500000000000e+02
1.054687500000000000e+03
7.968750000000000000e+02
9.453125000000000000e+02
9.531250000000000000e+02
9.765625000000000000e+02
9.531250000000000000e+02
9.296875000000000000e+02
9.257812500000000000e+02
8.828125000000000000e+02
9.296875000000000000e+02
9.531250000000000000e+02
9.843750000000000000e+02
9.843750000000000000e+02
1.000000000000000000e+03
9.960937500000000000e+02
9.453125000000000000e+02
9.531250000000000000e+02
9.296875000000000000e+02
8.984375000000000000e+02
8.320312500000000000e+02
8.203125000000000000e+02
8.281250000000000000e+02
7.851562500000000000e+02
8.085937500000000000e+02
7.734375000000000000e+02
1.503906250000000000e+03
7.539062500000000000e+02
7.500000000000000000e+02
7.070312500000000000e+02
7.460937500000000000e+02
1.406250000000000000e+03
7.343750000000000000e+02
7.812500000000000000e+02
8.125000000000000000e+02
7.851562500000000000e+02
7.851562500000000000e+02
8.554687500000000000e+02
1.664062500000000000e+03
8.398437500000000000e+02
8.007812500000000000e+02
8.281250000000000000e+02
8.750000000000000000e+02
8.164062500000000000e+02
8.203125000000000000e+02
1.671875000000000000e+03
8.828125000000000000e+02
8.906250000000000000e+02
7.968750000000000000e+02
8.281250000000000000e+02
8.750000000000000000e+02
8.750000000000000000e+02
8.906250000000000000e+02
8.593750000000000000e+02
8.945312500000000000e+02
8.632812500000000000e+02
1.765625000000000000e+03
9.492187500000000000e+02
8.945312500000000000e+02
8.867187500000000000e+02
8.203125000000000000e+02
8.671875000000000000e+02
8.398437500000000000e+02
8.242187500000000000e+02
8.320312500000000000e+02
1.769531250000000000e+03
1.726562500000000000e+03
8.515625000000000000e+02
8.398437500000000000e+02
2.726562500000000000e+03
1.028125000000000000e+04
9.726562500000000000e+02
9.531250000000000000e+02
9.570312500000000000e+02
9.453125000000000000e+02
1.882812500000000000e+03
8.945312500000000000e+02
9.414062500000000000e+02
9.804687500000000000e+02
9.140625000000000000e+02
9.804687500000000000e+02
9.218750000000000000e+02
9.492187500000000000e+02
9.531250000000000000e+02
9.062500000000000000e+02
8.710937500000000000e+02
8.750000000000000000e+02
8.398437500000000000e+02
8.046875000000000000e+02
7.695312500000000000e+02
7.734375000000000000e+02
7.890625000000000000e+02
7.812500000000000000e+02
7.851562500000000000e+02
7.460937500000000000e+02
7.929687500000000000e+02
8.320312500000000000e+02
8.437500000000000000e+02
8.046875000000000000e+02
8.242187500000000000e+02
8.789062500000000000e+02
8.125000000000000000e+02
8.359375000000000000e+02
9.140625000000000000e+02
8.789062500000000000e+02
9.140625000000000000e+02
8.710937500000000000e+02
8.671875000000000000e+02
2.535156250000000000e+03
8.046875000000000000e+02
7.617187500000000000e+02
2.472656250000000000e+03
8.359375000000000000e+02
8.476562500000000000e+02
8.593750000000000000e+02
1.753906250000000000e+03
8.750000000000000000e+02
8.750000000000000000e+02
8.281250000000000000e+02
7.929687500000000000e+02
7.890625000000000000e+02
2.335937500000000000e+03
7.343750000000000000e+02
8.007812500000000000e+02
1.589843750000000000e+03
8.046875000000000000e+02
7.929687500000000000e+02
8.046875000000000000e+02
8.476562500000000000e+02
8.125000000000000000e+02
8.515625000000000000e+02
8.710937500000000000e+02
9.101562500000000000e+02
3.460937500000000000e+03
8.632812500000000000e+02
8.906250000000000000e+02
9.492187500000000000e+02
8.984375000000000000e+02
2.309375000000000000e+04
3.722656250000000000e+03
8.515625000000000000e+02
8.515625000000000000e+02
8.046875000000000000e+02
8.046875000000000000e+02
5.648437500000000000e+03
9.960937500000000000e+02
7.382812500000000000e+02
1.136718750000000000e+03
1.792968750000000000e+03
8.515625000000000000e+02
8.320312500000000000e+02
8.750000000000000000e+02
1.835937500000000000e+03
6.750000000000000000e+03
9.687500000000000000e+02
1.898437500000000000e+03
1.933593750000000000e+03
2.941406250000000000e+03
9.804687500000000000e+02
9.960937500000000000e+02
9.648437500000000000e+02
8.984375000000000000e+02
9.335937500000000000e+02
9.296875000000000000e+02
3.664062500000000000e+03
8.710937500000000000e+02
8.789062500000000000e+02
8.242187500000000000e+02
2.445312500000000000e+03
1.621093750000000000e+03
1.421875000000000000e+03
8.007812500000000000e+02
8.164062500000000000e+02
8.671875000000000000e+02
8.320312500000000000e+02
2.273437500000000000e+03
7.343750000000000000e+02
7.031250000000000000e+02
9.648437500000000000e+02
1.355468750000000000e+03
7.500000000000000000e+02
7.500000000000000000e+02
7.148437500000000000e+02
2.113281250000000000e+03
7.031250000000000000e+02
7.539062500000000000e+02
3.679687500000000000e+03
2.996093750000000000e+03
7.617187500000000000e+02
7.148437500000000000e+02
8.007812500000000000e+02
1.695312500000000000e+03
2.953125000000000000e+03
1.511718750000000000e+03
7.304687500000000000e+02
4.691406250000000000e+03
8.632812500000000000e+02
1.656250000000000000e+03
8.046875000000000000e+02
7.773437500000000000e+02
7.968750000000000000e+02
7.578125000000000000e+02
8.125000000000000000e+02
7.968750000000000000e+02
8.320312500000000000e+02
1.679687500000000000e+03
1.660156250000000000e+03
8.554687500000000000e+02
8.593750000000000000e+02
8.515625000000000000e+02
8.398437500000000000e+02
1.566406250000000000e+03
7.304687500000000000e+02
7.304687500000000000e+02
7.382812500000000000e+02
7.070312500000000000e+02
7.773437500000000000e+02
1.585937500000000000e+03
8.281250000000000000e+02
8.789062500000000000e+02
8.125000000000000000e+02
8.242187500000000000e+02
8.046875000000000000e+02
4.769531250000000000e+03
7.382812500000000000e+02
1.905078125000000000e+04
1.660156250000000000e+03
8.242187500000000000e+02
2.390625000000000000e+03
8.437500000000000000e+02
9.062500000000000000e+02
9.062500000000000000e+02
9.218750000000000000e+02
9.375000000000000000e+02
3.625000000000000000e+03
1.843750000000000000e+03
2.789062500000000000e+03
9.843750000000000000e+02
9.414062500000000000e+02
9.843750000000000000e+02
1.000000000000000000e+03
2.843750000000000000e+03
9.484375000000000000e+03
9.726562500000000000e+02
9.648437500000000000e+02
9.960937500000000000e+02
9.414062500000000000e+02
9.375000000000000000e+02
9.492187500000000000e+02
2.812500000000000000e+03
5.644531250000000000e+03
6.652343750000000000e+03
1.890625000000000000e+03
9.140625000000000000e+02
8.632812500000000000e+02
2.402343750000000000e+03
7.812500000000000000e+02
7.773437500000000000e+02
8.007812500000000000e+02
8.437500000000000000e+02
8.867187500000000000e+02
2.863281250000000000e+03
9.375000000000000000e+02
9.804687500000000000e+02
9.492187500000000000e+02
9.257812500000000000e+02
1.878906250000000000e+03
9.335937500000000000e+02
9.296875000000000000e+02
1.773437500000000000e+03
9.218750000000000000e+02
3.726562500000000000e+03
9.531250000000000000e+02
9.179687500000000000e+02
8.906250000000000000e+02
8.632812500000000000e+02
1.527343750000000000e+04
5.753906250000000000e+03
9.648437500000000000e+02
9.570312500000000000e+02
9.414062500000000000e+02
2.886718750000000000e+03
9.570312500000000000e+02
9.570312500000000000e+02
2.781250000000000000e+03
8.671875000000000000e+02
8.203125000000000000e+02
7.812500000000000000e+02
1.585937500000000000e+03
1.554687500000000000e+03
1.574218750000000000e+03
1.453125000000000000e+03
3.093750000000000000e+03
1.769531250000000000e+03
6.992187500000000000e+02
6.953125000000000000e+02
2.433593750000000000e+03
5.851562500000000000e+03
9.218750000000000000e+02
1.882812500000000000e+03
1.820312500000000000e+03
1.792968750000000000e+03
6.480468750000000000e+03
9.335937500000000000e+02
9.101562500000000000e+02
2.804687500000000000e+03
2.777343750000000000e+03
9.492187500000000000e+02
8.710937500000000000e+02
4.515625000000000000e+03
8.945312500000000000e+02
1.718750000000000000e+03
8.281250000000000000e+02
8.671875000000000000e+02
8.515625000000000000e+02
8.125000000000000000e+02
5.812500000000000000e+03
7.695312500000000000e+02
8.007812500000000000e+02
7.968750000000000000e+02
8.398437500000000000e+02
8.007812500000000000e+02
8.203125000000000000e+02
3.414062500000000000e+03
1.714843750000000000e+03
8.750000000000000000e+02
8.515625000000000000e+02
8.437500000000000000e+02
8.164062500000000000e+02
7.851562500000000000e+02
7.695312500000000000e+02
8.164062500000000000e+02
7.734375000000000000e+02
8.203125000000000000e+02
1.722656250000000000e+03
8.359375000000000000e+02
2.468750000000000000e+03
1.656250000000000000e+03
1.691406250000000000e+03
2.601562500000000000e+03
2.671875000000000000e+03
1.750000000000000000e+03
8.242187500000000000e+03
3.683593750000000000e+03
9.023437500000000000e+02
1.765625000000000000e+03
3.492187500000000000e+03
9.023437500000000000e+02
8.671875000000000000e+02
8.710937500000000000e+02
8.984375000000000000e+02
1.800781250000000000e+03
8.710937500000000000e+02
8.515625000000000000e+02
7.812500000000000000e+02
7.578125000000000000e+02
7.539062500000000000e+02
7.734375000000000000e+02
7.773437500000000000e+02
8.007812500000000000e+02
8.554687500000000000e+02
9.140625000000000000e+02
9.140625000000000000e+02
8.984375000000000000e+02
2.687500000000000000e+03
9.101562500000000000e+02
8.671875000000000000e+02
8.789062500000000000e+02
8.750000000000000000e+02
8.476562500000000000e+02
8.828125000000000000e+02
8.632812500000000000e+02
8.789062500000000000e+02
9.179687500000000000e+02
9.023437500000000000e+02
8.906250000000000000e+02
9.296875000000000000e+02
9.023437500000000000e+02
