1.894531250000000000e+03
1.246093750000000000e+03
1.195312500000000000e+03
1.757812500000000000e+03
1.117187500000000000e+03
1.835937500000000000e+03
1.285156250000000000e+03
1.273437500000000000e+03
1.250000000000000000e+03
1.218750000000000000e+03
1.183593750000000000e+03
1.867187500000000000e+03
1.238281250000000000e+03
1.261718750000000000e+03
1.886718750000000000e+03
1.824218750000000000e+03
1.296875000000000000e+03
1.253906250000000000e+03
6.718750000000000000e+02
1.863281250000000000e+03
1.230468750000000000e+03
1.273437500000000000e+03
1.238281250000000000e+03
1.246093750000000000e+03
1.226562500000000000e+03
6.679687500000000000e+02
1.367187500000000000e+03
7.148437500000000000e+02
7.148437500000000000e+02
6.835937500000000000e+02
6.796875000000000000e+02
1.292968750000000000e+03
1.945312500000000000e+03
1.273437500000000000e+03
1.300781250000000000e+03
8.398437500000000000e+02
1.042968750000000000e+03
1.289062500000000000e+03
6.679687500000000000e+02
6.718750000000000000e+02
6.835937500000000000e+02
6.679687500000000000e+02
6.757812500000000000e+02
1.328125000000000000e+03
1.785156250000000000e+03
7.812500000000000000e+02
1.242187500000000000e+03
1.285156250000000000e+03
7.031250000000000000e+02
1.324218750000000000e+03
6.796875000000000000e+02
6.718750000000000000e+02
1.308593750000000000e+03
1.289062500000000000e+03
1.937500000000000000e+03
6.718750000000000000e+02
6.914062500000000000e+02
6.914062500000000000e+02
6.953125000000000000e+02
2.078125000000000000e+03
1.328125000000000000e+03
6.835937500000000000e+02
1.335937500000000000e+03
1.320312500000000000e+03
1.300781250000000000e+03
1.054687500000000000e+03
8.671875000000000000e+02
1.917968750000000000e+03
1.265625000000000000e+03
8.476562500000000000e+02
1.019531250000000000e+03
1.164062500000000000e+03
1.183593750000000000e+03
1.230468750000000000e+03
1.296875000000000000e+03
6.718750000000000000e+02
7.109375000000000000e+02
6.875000000000000000e+02
7.070312500000000000e+02
8.125000000000000000e+02
7.109375000000000000e+02
7.773437500000000000e+02
7.617187500000000000e+02
7.421875000000000000e+02
6.953125000000000000e+02
6.875000000000000000e+02
7.382812500000000000e+02
7.656250000000000000e+02
8.632812500000000000e+02
7.460937500000000000e+02
7.460937500000000000e+02
1.062500000000000000e+03
1.203125000000000000e+03
7.148437500000000000e+02
6.914062500000000000e+02
7.265625000000000000e+02
7.031250000000000000e+02
6.992187500000000000e+02
7.343750000000000000e+02
8.007812500000000000e+02
7.265625000000000000e+02
6.835937500000000000e+02
6.835937500000000000e+02
6.796875000000000000e+02
7.500000000000000000e+02
7.187500000000000000e+02
7.695312500000000000e+02
7.656250000000000000e+02
7.851562500000000000e+02
7.343750000000000000e+02
7.343750000000000000e+02
1.941406250000000000e+03
6.718750000000000000e+02
6.796875000000000000e+02
7.148437500000000000e+02
6.875000000000000000e+02
7.187500000000000000e+02
7.226562500000000000e+02
7.187500000000000000e+02
7.070312500000000000e+02
1.242187500000000000e+03
7.539062500000000000e+02
1.027343750000000000e+03
8.593750000000000000e+02
1.269531250000000000e+03
1.316406250000000000e+03
7.265625000000000000e+02
6.796875000000000000e+02
6.914062500000000000e+02
6.679687500000000000e+02
1.339843750000000000e+03
1.093750000000000000e+03
9.062500000000000000e+02
1.269531250000000000e+03
1.187500000000000000e+03
1.191406250000000000e+03
1.367187500000000000e+03
7.851562500000000000e+02
7.539062500000000000e+02
7.460937500000000000e+02
7.617187500000000000e+02
7.226562500000000000e+02
7.500000000000000000e+02
7.304687500000000000e+02
6.953125000000000000e+02
6.914062500000000000e+02
6.875000000000000000e+02
6.953125000000000000e+02
7.109375000000000000e+02
7.265625000000000000e+02
6.718750000000000000e+02
1.347656250000000000e+03
1.273437500000000000e+03
1.261718750000000000e+03
6.757812500000000000e+02
6.875000000000000000e+02
6.835937500000000000e+02
6.953125000000000000e+02
1.019531250000000000e+03
1.121093750000000000e+03
1.179687500000000000e+03
7.695312500000000000e+02
1.320312500000000000e+03
7.421875000000000000e+02
7.226562500000000000e+02
7.187500000000000000e+02
8.320312500000000000e+02
7.109375000000000000e+02
6.914062500000000000e+02
6.875000000000000000e+02
7.070312500000000000e+02
7.265625000000000000e+02
6.796875000000000000e+02
7.226562500000000000e+02
6.718750000000000000e+02
1.320312500000000000e+03
1.312500000000000000e+03
6.718750000000000000e+02
7.421875000000000000e+02
7.851562500000000000e+02
7.890625000000000000e+02
7.968750000000000000e+02
8.476562500000000000e+02
7.343750000000000000e+02
7.578125000000000000e+02
6.992187500000000000e+02
7.656250000000000000e+02
1.375000000000000000e+03
7.031250000000000000e+02
8.320312500000000000e+02
8.242187500000000000e+02
8.203125000000000000e+02
8.828125000000000000e+02
7.968750000000000000e+02
8.046875000000000000e+02
7.968750000000000000e+02
7.304687500000000000e+02
7.500000000000000000e+02
8.164062500000000000e+02
8.437500000000000000e+02
8.164062500000000000e+02
7.851562500000000000e+02
7.226562500000000000e+02
7.109375000000000000e+02
6.875000000000000000e+02
7.070312500000000000e+02
6.953125000000000000e+02
1.429687500000000000e+03
1.328125000000000000e+03
7.421875000000000000e+02
7.109375000000000000e+02
7.031250000000000000e+02
7.070312500000000000e+02
6.718750000000000000e+02
8.398437500000000000e+02
9.335937500000000000e+02
9.375000000000000000e+02
6.679687500000000000e+02
1.859375000000000000e+03
2.449218750000000000e+03
1.769531250000000000e+03
1.210937500000000000e+03
1.843750000000000000e+03
1.253906250000000000e+03
1.382812500000000000e+03
2.187500000000000000e+03
7.031250000000000000e+02
6.835937500000000000e+02
6.835937500000000000e+02
1.957031250000000000e+03
1.917968750000000000e+03
1.171875000000000000e+03
6.953125000000000000e+02
1.281250000000000000e+03
6.796875000000000000e+02
1.253906250000000000e+03
1.246093750000000000e+03
1.316406250000000000e+03
6.718750000000000000e+02
7.187500000000000000e+02
7.148437500000000000e+02
7.695312500000000000e+02
7.890625000000000000e+02
7.734375000000000000e+02
7.500000000000000000e+02
7.382812500000000000e+02
6.992187500000000000e+02
7.070312500000000000e+02
1.304687500000000000e+03
1.273437500000000000e+03
1.257812500000000000e+03
1.300781250000000000e+03
1.230468750000000000e+03
1.246093750000000000e+03
6.757812500000000000e+02
6.796875000000000000e+02
1.164062500000000000e+03
9.335937500000000000e+02
6.875000000000000000e+02
6.679687500000000000e+02
7.187500000000000000e+02
1.804687500000000000e+03
9.062500000000000000e+02
6.757812500000000000e+02
1.289062500000000000e+03
1.957031250000000000e+03
1.320312500000000000e+03
6.914062500000000000e+02
6.992187500000000000e+02
1.394531250000000000e+03
7.109375000000000000e+02
1.316406250000000000e+03
7.148437500000000000e+02
7.343750000000000000e+02
1.406250000000000000e+03
1.359375000000000000e+03
7.187500000000000000e+02
7.031250000000000000e+02
1.324218750000000000e+03
1.382812500000000000e+03
6.718750000000000000e+02
7.148437500000000000e+02
7.109375000000000000e+02
7.382812500000000000e+02
1.398437500000000000e+03
6.679687500000000000e+02
3.023437500000000000e+03
8.125000000000000000e+02
4.675781250000000000e+03
7.265625000000000000e+02
1.898437500000000000e+03
1.347656250000000000e+03
6.835937500000000000e+02
7.343750000000000000e+02
7.382812500000000000e+02
7.109375000000000000e+02
7.148437500000000000e+02
6.914062500000000000e+02
1.296875000000000000e+03
1.253906250000000000e+03
1.246093750000000000e+03
7.773437500000000000e+02
7.109375000000000000e+02
7.031250000000000000e+02
6.914062500000000000e+02
7.265625000000000000e+02
7.148437500000000000e+02
7.695312500000000000e+02
7.148437500000000000e+02
6.953125000000000000e+02
6.875000000000000000e+02
7.031250000000000000e+02
6.757812500000000000e+02
6.835937500000000000e+02
6.718750000000000000e+02
8.125000000000000000e+02
8.359375000000000000e+02
1.066406250000000000e+03
6.914062500000000000e+02
1.304687500000000000e+03
1.335937500000000000e+03
6.953125000000000000e+02
6.914062500000000000e+02
1.328125000000000000e+03
6.718750000000000000e+02
7.109375000000000000e+02
7.734375000000000000e+02
8.281250000000000000e+02
7.773437500000000000e+02
1.320312500000000000e+03
7.500000000000000000e+02
7.265625000000000000e+02
7.070312500000000000e+02
7.226562500000000000e+02
1.324218750000000000e+03
6.953125000000000000e+02
7.031250000000000000e+02
7.617187500000000000e+02
7.968750000000000000e+02
7.617187500000000000e+02
7.851562500000000000e+02
1.351562500000000000e+03
6.718750000000000000e+02
1.253906250000000000e+03
1.250000000000000000e+03
1.246093750000000000e+03
1.281250000000000000e+03
1.277343750000000000e+03
6.679687500000000000e+02
1.304687500000000000e+03
1.285156250000000000e+03
6.953125000000000000e+02
7.187500000000000000e+02
6.875000000000000000e+02
7.617187500000000000e+02
7.460937500000000000e+02
7.070312500000000000e+02
6.953125000000000000e+02
7.382812500000000000e+02
6.679687500000000000e+02
1.324218750000000000e+03
1.171875000000000000e+03
1.449218750000000000e+03
6.914062500000000000e+02
6.679687500000000000e+02
6.992187500000000000e+02
6.914062500000000000e+02
7.109375000000000000e+02
1.367187500000000000e+03
6.914062500000000000e+02
7.031250000000000000e+02
6.796875000000000000e+02
6.914062500000000000e+02
1.343750000000000000e+03
7.070312500000000000e+02
1.312500000000000000e+03
1.292968750000000000e+03
6.757812500000000000e+02
1.277343750000000000e+03
1.277343750000000000e+03
1.308593750000000000e+03
1.281250000000000000e+03
6.796875000000000000e+02
6.796875000000000000e+02
6.992187500000000000e+02
6.992187500000000000e+02
6.835937500000000000e+02
6.914062500000000000e+02
6.914062500000000000e+02
6.679687500000000000e+02
1.332031250000000000e+03
1.257812500000000000e+03
1.289062500000000000e+03
1.867187500000000000e+03
7.187500000000000000e+02
8.984375000000000000e+02
1.070312500000000000e+03
1.277343750000000000e+03
3.207031250000000000e+03
1.882812500000000000e+03
1.300781250000000000e+03
1.304687500000000000e+03
