6.679687500000000000e+02
7.968750000000000000e+02
7.500000000000000000e+02
9.648437500000000000e+02
8.984375000000000000e+02
1.250000000000000000e+03
1.296875000000000000e+03
6.718750000000000000e+02
7.109375000000000000e+02
7.343750000000000000e+02
7.031250000000000000e+02
9.140625000000000000e+02
7.539062500000000000e+02
7.851562500000000000e+02
3.086328125000000000e+04
1.375000000000000000e+03
6.796875000000000000e+02
8.242187500000000000e+02
1.648437500000000000e+03
7.578125000000000000e+02
1.046875000000000000e+03
1.035156250000000000e+03
9.453125000000000000e+02
6.718750000000000000e+02
1.027343750000000000e+03
1.113281250000000000e+03
1.199218750000000000e+03
1.281250000000000000e+03
1.484375000000000000e+03
1.320312500000000000e+03
6.757812500000000000e+02
6.953125000000000000e+02
7.226562500000000000e+02
6.953125000000000000e+02
1.042968750000000000e+03
7.343750000000000000e+02
1.234375000000000000e+03
1.105468750000000000e+03
1.179687500000000000e+03
1.492187500000000000e+03
7.851562500000000000e+02
1.164062500000000000e+03
1.324218750000000000e+03
2.710937500000000000e+03
7.695312500000000000e+02
9.882812500000000000e+02
2.113281250000000000e+03
1.109375000000000000e+03
7.421875000000000000e+02
8.242187500000000000e+02
8.281250000000000000e+02
1.328125000000000000e+03
1.312500000000000000e+03
6.679687500000000000e+02
1.304687500000000000e+03
1.945312500000000000e+03
1.324218750000000000e+03
7.070312500000000000e+02
7.382812500000000000e+02
7.539062500000000000e+02
7.734375000000000000e+02
7.929687500000000000e+02
7.382812500000000000e+02
7.148437500000000000e+02
7.109375000000000000e+02
6.992187500000000000e+02
6.914062500000000000e+02
1.367187500000000000e+03
1.316406250000000000e+03
1.257812500000000000e+03
1.273437500000000000e+03
6.835937500000000000e+02
7.695312500000000000e+02
8.007812500000000000e+02
7.968750000000000000e+02
8.203125000000000000e+02
8.203125000000000000e+02
7.695312500000000000e+02
7.617187500000000000e+02
7.500000000000000000e+02
7.304687500000000000e+02
7.187500000000000000e+02
7.031250000000000000e+02
1.371093750000000000e+03
6.718750000000000000e+02
6.757812500000000000e+02
1.312500000000000000e+03
1.273437500000000000e+03
1.898437500000000000e+03
1.332031250000000000e+03
7.070312500000000000e+02
1.429687500000000000e+03
7.070312500000000000e+02
6.835937500000000000e+02
3.335937500000000000e+03
6.796875000000000000e+02
1.339843750000000000e+03
6.679687500000000000e+02
1.332031250000000000e+03
6.796875000000000000e+02
6.679687500000000000e+02
6.992187500000000000e+02
1.363281250000000000e+03
1.324218750000000000e+03
1.328125000000000000e+03
6.796875000000000000e+02
6.718750000000000000e+02
6.875000000000000000e+02
6.953125000000000000e+02
6.992187500000000000e+02
7.031250000000000000e+02
6.914062500000000000e+02
6.914062500000000000e+02
6.953125000000000000e+02
6.875000000000000000e+02
6.757812500000000000e+02
1.328125000000000000e+03
1.320312500000000000e+03
1.285156250000000000e+03
1.949218750000000000e+03
1.355468750000000000e+03
6.914062500000000000e+02
6.992187500000000000e+02
6.992187500000000000e+02
6.835937500000000000e+02
6.679687500000000000e+02
1.304687500000000000e+03
1.867187500000000000e+03
1.289062500000000000e+03
6.796875000000000000e+02
7.109375000000000000e+02
7.500000000000000000e+02
7.382812500000000000e+02
7.148437500000000000e+02
7.109375000000000000e+02
6.992187500000000000e+02
7.070312500000000000e+02
7.070312500000000000e+02
6.953125000000000000e+02
6.914062500000000000e+02
7.226562500000000000e+02
7.031250000000000000e+02
7.031250000000000000e+02
7.109375000000000000e+02
6.953125000000000000e+02
1.996093750000000000e+03
1.332031250000000000e+03
7.187500000000000000e+02
7.500000000000000000e+02
7.304687500000000000e+02
8.046875000000000000e+02
8.593750000000000000e+02
8.242187500000000000e+02
7.929687500000000000e+02
7.734375000000000000e+02
7.656250000000000000e+02
7.343750000000000000e+02
7.148437500000000000e+02
7.070312500000000000e+02
7.031250000000000000e+02
7.070312500000000000e+02
6.875000000000000000e+02
6.953125000000000000e+02
6.796875000000000000e+02
6.679687500000000000e+02
6.718750000000000000e+02
6.718750000000000000e+02
6.718750000000000000e+02
6.718750000000000000e+02
6.757812500000000000e+02
6.796875000000000000e+02
6.835937500000000000e+02
6.875000000000000000e+02
6.757812500000000000e+02
6.835937500000000000e+02
6.914062500000000000e+02
6.796875000000000000e+02
6.718750000000000000e+02
6.718750000000000000e+02
1.296875000000000000e+03
1.316406250000000000e+03
6.796875000000000000e+02
6.992187500000000000e+02
7.343750000000000000e+02
7.382812500000000000e+02
7.187500000000000000e+02
7.109375000000000000e+02
7.148437500000000000e+02
6.953125000000000000e+02
6.992187500000000000e+02
7.031250000000000000e+02
6.835937500000000000e+02
1.339843750000000000e+03
6.796875000000000000e+02
6.679687500000000000e+02
7.929687500000000000e+02
1.199218750000000000e+03
6.757812500000000000e+02
6.835937500000000000e+02
6.953125000000000000e+02
6.914062500000000000e+02
6.992187500000000000e+02
1.382812500000000000e+03
1.328125000000000000e+03
1.296875000000000000e+03
6.679687500000000000e+02
6.757812500000000000e+02
6.835937500000000000e+02
6.992187500000000000e+02
6.875000000000000000e+02
6.914062500000000000e+02
6.757812500000000000e+02
6.679687500000000000e+02
1.304687500000000000e+03
1.273437500000000000e+03
1.269531250000000000e+03
1.296875000000000000e+03
1.285156250000000000e+03
6.679687500000000000e+02
6.875000000000000000e+02
6.835937500000000000e+02
6.875000000000000000e+02
1.328125000000000000e+03
1.304687500000000000e+03
1.281250000000000000e+03
1.281250000000000000e+03
1.304687500000000000e+03
1.304687500000000000e+03
1.332031250000000000e+03
9.101562500000000000e+02
1.058593750000000000e+03
1.257812500000000000e+03
1.257812500000000000e+03
1.292968750000000000e+03
8.320312500000000000e+02
9.375000000000000000e+02
8.828125000000000000e+02
6.718750000000000000e+02
6.718750000000000000e+02
6.679687500000000000e+02
1.320312500000000000e+03
1.335937500000000000e+03
6.718750000000000000e+02
6.875000000000000000e+02
2.242187500000000000e+03
7.578125000000000000e+02
7.539062500000000000e+02
7.500000000000000000e+02
7.148437500000000000e+02
7.031250000000000000e+02
6.835937500000000000e+02
1.320312500000000000e+03
1.273437500000000000e+03
7.109375000000000000e+02
6.914062500000000000e+02
6.914062500000000000e+02
7.109375000000000000e+02
7.187500000000000000e+02
7.148437500000000000e+02
7.187500000000000000e+02
7.226562500000000000e+02
7.148437500000000000e+02
6.718750000000000000e+02
6.679687500000000000e+02
1.292968750000000000e+03
1.261718750000000000e+03
1.242187500000000000e+03
1.375000000000000000e+03
2.158593750000000000e+04
6.875000000000000000e+02
7.812500000000000000e+02
1.375000000000000000e+03
7.695312500000000000e+02
7.421875000000000000e+02
7.382812500000000000e+02
1.359375000000000000e+03
9.179687500000000000e+02
1.796875000000000000e+03
7.968750000000000000e+02
6.953125000000000000e+02
7.070312500000000000e+02
7.578125000000000000e+02
1.351562500000000000e+03
6.875000000000000000e+02
6.679687500000000000e+02
1.328125000000000000e+03
6.835937500000000000e+02
6.835937500000000000e+02
7.148437500000000000e+02
6.953125000000000000e+02
7.148437500000000000e+02
7.070312500000000000e+02
7.148437500000000000e+02
6.875000000000000000e+02
7.031250000000000000e+02
6.875000000000000000e+02
6.875000000000000000e+02
1.300781250000000000e+03
8.007812500000000000e+02
1.238281250000000000e+03
1.324218750000000000e+03
7.031250000000000000e+02
7.265625000000000000e+02
7.421875000000000000e+02
7.421875000000000000e+02
7.109375000000000000e+02
6.953125000000000000e+02
6.992187500000000000e+02
6.875000000000000000e+02
6.835937500000000000e+02
6.718750000000000000e+02
6.875000000000000000e+02
6.835937500000000000e+02
6.914062500000000000e+02
6.953125000000000000e+02
6.796875000000000000e+02
6.718750000000000000e+02
1.500000000000000000e+03
1.156250000000000000e+03
6.835937500000000000e+02
7.109375000000000000e+02
7.851562500000000000e+02
7.656250000000000000e+02
7.890625000000000000e+02
7.929687500000000000e+02
7.500000000000000000e+02
7.500000000000000000e+02
7.070312500000000000e+02
6.953125000000000000e+02
1.328125000000000000e+03
1.125000000000000000e+03
7.812500000000000000e+02
1.292968750000000000e+03
6.718750000000000000e+02
7.031250000000000000e+02
7.382812500000000000e+02
7.617187500000000000e+02
7.929687500000000000e+02
7.890625000000000000e+02
7.812500000000000000e+02
7.890625000000000000e+02
7.695312500000000000e+02
7.695312500000000000e+02
7.460937500000000000e+02
7.500000000000000000e+02
7.343750000000000000e+02
7.226562500000000000e+02
1.304687500000000000e+03
8.976562500000000000e+03
7.968750000000000000e+02
8.476562500000000000e+02
1.070312500000000000e+03
1.261718750000000000e+03
1.218750000000000000e+03
6.718750000000000000e+02
6.796875000000000000e+02
6.796875000000000000e+02
6.796875000000000000e+02
7.031250000000000000e+02
6.914062500000000000e+02
7.031250000000000000e+02
7.226562500000000000e+02
7.031250000000000000e+02
1.113281250000000000e+03
9.726562500000000000e+02
7.070312500000000000e+02
6.718750000000000000e+02
6.835937500000000000e+02
1.343750000000000000e+03
6.875000000000000000e+02
6.679687500000000000e+02
1.523437500000000000e+03
1.234375000000000000e+03
6.914062500000000000e+02
6.914062500000000000e+02
1.378906250000000000e+03
6.875000000000000000e+02
6.796875000000000000e+02
6.875000000000000000e+02
6.875000000000000000e+02
8.750000000000000000e+02
8.398437500000000000e+02
1.582031250000000000e+03
7.148437500000000000e+02
7.890625000000000000e+02
1.171875000000000000e+03
6.679687500000000000e+02
6.835937500000000000e+02
1.421875000000000000e+03
7.187500000000000000e+02
7.343750000000000000e+02
7.539062500000000000e+02
7.304687500000000000e+02
7.304687500000000000e+02
6.992187500000000000e+02
6.953125000000000000e+02
2.000000000000000000e+03
1.320312500000000000e+03
1.992187500000000000e+03
1.371093750000000000e+03
1.394531250000000000e+03
1.941406250000000000e+03
7.890625000000000000e+02
7.070312500000000000e+02
1.019531250000000000e+03
9.414062500000000000e+02
8.554687500000000000e+02
7.734375000000000000e+02
9.335937500000000000e+02
8.125000000000000000e+02
6.679687500000000000e+02
1.351562500000000000e+03
6.835937500000000000e+02
6.796875000000000000e+02
1.406250000000000000e+03
6.992187500000000000e+02
1.214843750000000000e+03
7.890625000000000000e+02
7.851562500000000000e+02
1.132812500000000000e+03
6.796875000000000000e+02
6.875000000000000000e+02
6.953125000000000000e+02
6.914062500000000000e+02
6.992187500000000000e+02
7.070312500000000000e+02
6.914062500000000000e+02
6.953125000000000000e+02
6.875000000000000000e+02
1.019531250000000000e+03
1.039062500000000000e+03
1.457031250000000000e+03
7.148437500000000000e+02
6.914062500000000000e+02
9.453125000000000000e+02
7.265625000000000000e+02
1.382812500000000000e+03
8.085937500000000000e+02
1.332031250000000000e+03
9.687500000000000000e+02
9.453125000000000000e+02
7.304687500000000000e+02
8.710937500000000000e+02
4.976562500000000000e+03
6.949218750000000000e+03
7.031250000000000000e+02
7.109375000000000000e+02
6.914062500000000000e+02
1.324218750000000000e+03
1.968750000000000000e+03
6.679687500000000000e+02
6.757812500000000000e+02
1.335937500000000000e+03
7.890625000000000000e+02
1.078125000000000000e+03
6.875000000000000000e+02
1.300781250000000000e+03
1.265742187500000000e+05
1.230468750000000000e+03
1.214843750000000000e+03
1.304687500000000000e+03
6.796875000000000000e+02
7.031250000000000000e+02
7.304687500000000000e+02
7.500000000000000000e+02
7.382812500000000000e+02
7.656250000000000000e+02
7.500000000000000000e+02
9.492187500000000000e+02
1.230468750000000000e+03
6.875000000000000000e+02
6.992187500000000000e+02
6.796875000000000000e+02
1.351562500000000000e+03
8.515625000000000000e+02
7.109375000000000000e+02
1.015625000000000000e+03
6.992187500000000000e+02
1.085937500000000000e+03
9.179687500000000000e+02
1.246093750000000000e+03
2.472656250000000000e+03
1.593750000000000000e+03
1.105468750000000000e+03
1.386718750000000000e+03
9.375000000000000000e+02
8.164062500000000000e+02
7.929687500000000000e+02
1.046875000000000000e+03
8.632812500000000000e+02
8.867187500000000000e+02
1.300781250000000000e+03
9.648437500000000000e+02
8.710937500000000000e+02
7.070312500000000000e+02
7.187500000000000000e+02
1.207031250000000000e+03
9.062500000000000000e+02
6.992187500000000000e+02
9.140625000000000000e+02
8.710937500000000000e+02
1.273437500000000000e+03
1.031250000000000000e+03
6.953125000000000000e+02
1.507812500000000000e+03
7.890625000000000000e+02
8.320312500000000000e+02
9.023437500000000000e+02
9.023437500000000000e+02
1.285156250000000000e+03
1.265625000000000000e+03
9.570312500000000000e+02
1.078125000000000000e+03
1.183593750000000000e+03
1.312500000000000000e+03
6.679687500000000000e+02
6.679687500000000000e+02
8.125000000000000000e+02
8.750000000000000000e+02
7.695312500000000000e+02
7.539062500000000000e+02
7.265625000000000000e+02
1.250000000000000000e+03
1.187500000000000000e+03
1.441406250000000000e+03
1.152343750000000000e+03
