7.890625000000000000e+02
8.320312500000000000e+02
7.109375000000000000e+02
9.882812500000000000e+02
7.734375000000000000e+02
6.679687500000000000e+02
7.539062500000000000e+02
7.382812500000000000e+02
7.226562500000000000e+02
7.148437500000000000e+02
6.796875000000000000e+02
1.406250000000000000e+03
8.164062500000000000e+02
1.343750000000000000e+03
8.789062500000000000e+02
1.121093750000000000e+03
3.242187500000000000e+03
7.382812500000000000e+02
7.343750000000000000e+02
7.343750000000000000e+02
7.226562500000000000e+02
7.031250000000000000e+02
8.593750000000000000e+02
8.750000000000000000e+02
1.074218750000000000e+03
2.707031250000000000e+03
1.339843750000000000e+03
6.679687500000000000e+02
6.718750000000000000e+02
6.992187500000000000e+02
8.085937500000000000e+02
7.929687500000000000e+02
1.226562500000000000e+03
7.148437500000000000e+02
7.343750000000000000e+02
1.230468750000000000e+03
9.609375000000000000e+02
7.148437500000000000e+02
7.109375000000000000e+02
7.031250000000000000e+02
6.914062500000000000e+02
6.757812500000000000e+02
6.757812500000000000e+02
6.718750000000000000e+02
1.308593750000000000e+03
1.312500000000000000e+03
1.328125000000000000e+03
6.835937500000000000e+02
6.914062500000000000e+02
6.875000000000000000e+02
6.914062500000000000e+02
6.992187500000000000e+02
1.429687500000000000e+03
7.070312500000000000e+02
7.109375000000000000e+02
7.031250000000000000e+02
6.875000000000000000e+02
6.914062500000000000e+02
6.796875000000000000e+02
6.679687500000000000e+02
6.718750000000000000e+02
1.339843750000000000e+03
6.679687500000000000e+02
6.757812500000000000e+02
6.914062500000000000e+02
6.835937500000000000e+02
6.835937500000000000e+02
6.914062500000000000e+02
6.835937500000000000e+02
9.179687500000000000e+02
1.152343750000000000e+03
6.992187500000000000e+02
6.835937500000000000e+02
1.355468750000000000e+03
6.835937500000000000e+02
6.992187500000000000e+02
6.914062500000000000e+02
6.992187500000000000e+02
7.148437500000000000e+02
7.265625000000000000e+02
7.226562500000000000e+02
7.304687500000000000e+02
7.343750000000000000e+02
7.226562500000000000e+02
7.265625000000000000e+02
7.265625000000000000e+02
7.148437500000000000e+02
7.109375000000000000e+02
1.417968750000000000e+03
6.914062500000000000e+02
7.031250000000000000e+02
7.031250000000000000e+02
7.148437500000000000e+02
7.148437500000000000e+02
1.218750000000000000e+03
9.882812500000000000e+02
7.265625000000000000e+02
7.460937500000000000e+02
7.382812500000000000e+02
7.460937500000000000e+02
7.421875000000000000e+02
7.304687500000000000e+02
7.265625000000000000e+02
7.148437500000000000e+02
1.437500000000000000e+03
7.226562500000000000e+02
7.187500000000000000e+02
7.226562500000000000e+02
7.421875000000000000e+02
7.382812500000000000e+02
7.460937500000000000e+02
7.617187500000000000e+02
7.578125000000000000e+02
7.500000000000000000e+02
7.656250000000000000e+02
7.617187500000000000e+02
7.265625000000000000e+02
7.343750000000000000e+02
7.304687500000000000e+02
7.031250000000000000e+02
7.148437500000000000e+02
7.226562500000000000e+02
7.226562500000000000e+02
6.796875000000000000e+02
6.757812500000000000e+02
9.062500000000000000e+02
6.875000000000000000e+02
1.335937500000000000e+03
1.726562500000000000e+03
7.578125000000000000e+02
7.578125000000000000e+02
7.500000000000000000e+02
7.578125000000000000e+02
6.718750000000000000e+02
7.734375000000000000e+02
9.335937500000000000e+02
1.023437500000000000e+03
1.093750000000000000e+03
7.617187500000000000e+02
1.476562500000000000e+03
7.031250000000000000e+02
7.695312500000000000e+02
7.265625000000000000e+02
7.773437500000000000e+02
7.617187500000000000e+02
8.164062500000000000e+02
7.929687500000000000e+02
8.007812500000000000e+02
7.929687500000000000e+02
8.046875000000000000e+02
7.890625000000000000e+02
7.656250000000000000e+02
7.851562500000000000e+02
7.968750000000000000e+02
7.695312500000000000e+02
7.812500000000000000e+02
7.968750000000000000e+02
8.085937500000000000e+02
8.359375000000000000e+02
8.398437500000000000e+02
7.812500000000000000e+02
8.164062500000000000e+02
8.125000000000000000e+02
8.242187500000000000e+02
8.554687500000000000e+02
7.773437500000000000e+02
7.812500000000000000e+02
8.046875000000000000e+02
8.320312500000000000e+02
8.398437500000000000e+02
8.085937500000000000e+02
8.359375000000000000e+02
8.554687500000000000e+02
8.554687500000000000e+02
8.750000000000000000e+02
8.398437500000000000e+02
8.476562500000000000e+02
8.476562500000000000e+02
8.437500000000000000e+02
7.890625000000000000e+02
8.164062500000000000e+02
8.398437500000000000e+02
8.125000000000000000e+02
7.890625000000000000e+02
7.968750000000000000e+02
8.242187500000000000e+02
8.476562500000000000e+02
8.632812500000000000e+02
8.632812500000000000e+02
8.437500000000000000e+02
8.671875000000000000e+02
8.398437500000000000e+02
8.320312500000000000e+02
8.359375000000000000e+02
8.359375000000000000e+02
8.437500000000000000e+02
8.632812500000000000e+02
8.906250000000000000e+02
9.140625000000000000e+02
1.675781250000000000e+03
8.632812500000000000e+02
8.320312500000000000e+02
8.515625000000000000e+02
8.515625000000000000e+02
8.320312500000000000e+02
8.281250000000000000e+02
8.320312500000000000e+02
8.671875000000000000e+02
9.023437500000000000e+02
8.945312500000000000e+02
8.945312500000000000e+02
8.828125000000000000e+02
8.164062500000000000e+02
8.046875000000000000e+02
8.164062500000000000e+02
8.164062500000000000e+02
7.851562500000000000e+02
8.320312500000000000e+02
8.476562500000000000e+02
8.476562500000000000e+02
8.867187500000000000e+02
8.867187500000000000e+02
8.789062500000000000e+02
8.906250000000000000e+02
8.164062500000000000e+02
7.812500000000000000e+02
7.890625000000000000e+02
8.085937500000000000e+02
8.437500000000000000e+02
8.671875000000000000e+02
8.671875000000000000e+02
8.554687500000000000e+02
1.714843750000000000e+03
8.437500000000000000e+02
8.046875000000000000e+02
7.890625000000000000e+02
8.046875000000000000e+02
8.046875000000000000e+02
7.968750000000000000e+02
8.203125000000000000e+02
8.398437500000000000e+02
8.437500000000000000e+02
8.320312500000000000e+02
8.281250000000000000e+02
8.320312500000000000e+02
8.359375000000000000e+02
8.320312500000000000e+02
8.320312500000000000e+02
7.968750000000000000e+02
8.085937500000000000e+02
8.203125000000000000e+02
8.437500000000000000e+02
8.359375000000000000e+02
8.632812500000000000e+02
8.710937500000000000e+02
8.828125000000000000e+02
8.320312500000000000e+02
8.398437500000000000e+02
8.437500000000000000e+02
8.398437500000000000e+02
7.968750000000000000e+02
7.734375000000000000e+02
7.695312500000000000e+02
7.929687500000000000e+02
8.281250000000000000e+02
8.515625000000000000e+02
8.906250000000000000e+02
8.398437500000000000e+02
8.281250000000000000e+02
8.359375000000000000e+02
8.437500000000000000e+02
8.554687500000000000e+02
8.437500000000000000e+02
8.437500000000000000e+02
8.437500000000000000e+02
8.203125000000000000e+02
8.085937500000000000e+02
7.929687500000000000e+02
7.695312500000000000e+02
7.812500000000000000e+02
7.890625000000000000e+02
8.085937500000000000e+02
8.046875000000000000e+02
7.734375000000000000e+02
8.007812500000000000e+02
8.125000000000000000e+02
8.125000000000000000e+02
7.968750000000000000e+02
8.320312500000000000e+02
8.203125000000000000e+02
8.085937500000000000e+02
8.125000000000000000e+02
8.007812500000000000e+02
8.203125000000000000e+02
8.203125000000000000e+02
8.046875000000000000e+02
8.242187500000000000e+02
8.242187500000000000e+02
8.242187500000000000e+02
7.851562500000000000e+02
7.617187500000000000e+02
7.695312500000000000e+02
7.734375000000000000e+02
7.500000000000000000e+02
7.343750000000000000e+02
7.460937500000000000e+02
1.460937500000000000e+03
7.031250000000000000e+02
6.992187500000000000e+02
6.718750000000000000e+02
1.351562500000000000e+03
6.875000000000000000e+02
1.402343750000000000e+03
7.031250000000000000e+02
7.070312500000000000e+02
7.226562500000000000e+02
7.304687500000000000e+02
7.421875000000000000e+02
7.343750000000000000e+02
7.382812500000000000e+02
7.539062500000000000e+02
7.578125000000000000e+02
7.539062500000000000e+02
1.484375000000000000e+03
7.500000000000000000e+02
7.343750000000000000e+02
7.500000000000000000e+02
7.500000000000000000e+02
7.500000000000000000e+02
7.382812500000000000e+02
1.468750000000000000e+03
7.265625000000000000e+02
7.109375000000000000e+02
1.417968750000000000e+03
6.914062500000000000e+02
6.992187500000000000e+02
6.953125000000000000e+02
6.914062500000000000e+02
6.914062500000000000e+02
6.953125000000000000e+02
7.070312500000000000e+02
7.070312500000000000e+02
6.992187500000000000e+02
7.031250000000000000e+02
7.109375000000000000e+02
7.070312500000000000e+02
7.109375000000000000e+02
7.148437500000000000e+02
1.402343750000000000e+03
6.953125000000000000e+02
6.875000000000000000e+02
8.203125000000000000e+02
1.226562500000000000e+03
1.355468750000000000e+03
6.757812500000000000e+02
7.109375000000000000e+02
7.773437500000000000e+02
1.242187500000000000e+03
7.460937500000000000e+02
1.320312500000000000e+03
1.386718750000000000e+03
8.750000000000000000e+02
1.179687500000000000e+03
6.835937500000000000e+02
6.992187500000000000e+02
7.031250000000000000e+02
6.835937500000000000e+02
6.953125000000000000e+02
7.109375000000000000e+02
7.031250000000000000e+02
7.187500000000000000e+02
7.382812500000000000e+02
7.421875000000000000e+02
7.500000000000000000e+02
7.343750000000000000e+02
7.304687500000000000e+02
7.382812500000000000e+02
1.453125000000000000e+03
7.382812500000000000e+02
7.421875000000000000e+02
7.617187500000000000e+02
7.617187500000000000e+02
7.929687500000000000e+02
8.515625000000000000e+02
9.843750000000000000e+02
8.515625000000000000e+02
1.289062500000000000e+03
8.085937500000000000e+02
1.468750000000000000e+03
8.828125000000000000e+02
9.882812500000000000e+02
7.734375000000000000e+02
1.503906250000000000e+03
7.734375000000000000e+02
8.007812500000000000e+02
8.164062500000000000e+02
8.164062500000000000e+02
8.085937500000000000e+02
7.773437500000000000e+02
7.890625000000000000e+02
1.031250000000000000e+03
1.164062500000000000e+03
1.015625000000000000e+03
8.398437500000000000e+02
7.734375000000000000e+02
1.257812500000000000e+03
1.238281250000000000e+03
7.304687500000000000e+02
7.382812500000000000e+02
7.851562500000000000e+02
7.851562500000000000e+02
8.164062500000000000e+02
8.476562500000000000e+02
8.554687500000000000e+02
8.359375000000000000e+02
8.515625000000000000e+02
8.164062500000000000e+02
7.812500000000000000e+02
8.359375000000000000e+02
8.515625000000000000e+02
8.359375000000000000e+02
8.632812500000000000e+02
8.515625000000000000e+02
8.359375000000000000e+02
8.437500000000000000e+02
8.320312500000000000e+02
8.437500000000000000e+02
8.203125000000000000e+02
8.359375000000000000e+02
8.515625000000000000e+02
8.359375000000000000e+02
8.437500000000000000e+02
8.593750000000000000e+02
8.593750000000000000e+02
8.398437500000000000e+02
8.437500000000000000e+02
8.593750000000000000e+02
8.437500000000000000e+02
8.710937500000000000e+02
8.828125000000000000e+02
8.437500000000000000e+02
8.437500000000000000e+02
8.632812500000000000e+02
8.476562500000000000e+02
8.320312500000000000e+02
8.515625000000000000e+02
8.515625000000000000e+02
8.359375000000000000e+02
8.437500000000000000e+02
8.476562500000000000e+02
8.242187500000000000e+02
8.476562500000000000e+02
8.398437500000000000e+02
7.929687500000000000e+02
7.695312500000000000e+02
7.890625000000000000e+02
8.085937500000000000e+02
8.281250000000000000e+02
8.125000000000000000e+02
8.281250000000000000e+02
8.671875000000000000e+02
8.476562500000000000e+02
8.632812500000000000e+02
8.671875000000000000e+02
8.554687500000000000e+02
8.554687500000000000e+02
8.398437500000000000e+02
8.281250000000000000e+02
1.691406250000000000e+03
1.335937500000000000e+03
1.210937500000000000e+03
1.101562500000000000e+03
8.632812500000000000e+02
7.734375000000000000e+02
6.718750000000000000e+02
9.882812500000000000e+02
1.214843750000000000e+03
1.214843750000000000e+03
9.843750000000000000e+02
9.531250000000000000e+02
8.359375000000000000e+02
9.140625000000000000e+02
1.390625000000000000e+03
9.062500000000000000e+02
1.566406250000000000e+03
7.617187500000000000e+02
7.617187500000000000e+02
7.500000000000000000e+02
7.421875000000000000e+02
7.304687500000000000e+02
7.148437500000000000e+02
6.992187500000000000e+02
6.953125000000000000e+02
6.875000000000000000e+02
6.992187500000000000e+02
7.031250000000000000e+02
7.187500000000000000e+02
7.382812500000000000e+02
7.343750000000000000e+02
7.617187500000000000e+02
7.695312500000000000e+02
7.890625000000000000e+02
7.812500000000000000e+02
7.929687500000000000e+02
7.929687500000000000e+02
7.812500000000000000e+02
7.734375000000000000e+02
7.695312500000000000e+02
7.695312500000000000e+02
7.578125000000000000e+02
9.609375000000000000e+02
1.238281250000000000e+03
7.187500000000000000e+02
6.953125000000000000e+02
6.953125000000000000e+02
7.109375000000000000e+02
6.953125000000000000e+02
6.875000000000000000e+02
7.031250000000000000e+02
6.992187500000000000e+02
6.953125000000000000e+02
6.953125000000000000e+02
7.031250000000000000e+02
7.070312500000000000e+02
6.875000000000000000e+02
7.148437500000000000e+02
7.148437500000000000e+02
6.992187500000000000e+02
7.031250000000000000e+02
6.953125000000000000e+02
7.109375000000000000e+02
6.953125000000000000e+02
1.257812500000000000e+03
8.554687500000000000e+02
7.070312500000000000e+02
7.148437500000000000e+02
7.070312500000000000e+02
7.070312500000000000e+02
1.429687500000000000e+03
1.414062500000000000e+03
6.992187500000000000e+02
6.992187500000000000e+02
6.875000000000000000e+02
6.953125000000000000e+02
6.875000000000000000e+02
6.835937500000000000e+02
1.363281250000000000e+03
6.835937500000000000e+02
2.761718750000000000e+03
6.835937500000000000e+02
7.031250000000000000e+02
7.031250000000000000e+02
7.070312500000000000e+02
6.835937500000000000e+02
7.070312500000000000e+02
6.953125000000000000e+02
6.835937500000000000e+02
1.367187500000000000e+03
6.757812500000000000e+02
6.718750000000000000e+02
6.757812500000000000e+02
2.015625000000000000e+03
1.363281250000000000e+03
6.835937500000000000e+02
6.796875000000000000e+02
6.914062500000000000e+02
6.796875000000000000e+02
2.070312500000000000e+03
6.875000000000000000e+02
6.914062500000000000e+02
6.796875000000000000e+02
