7.656250000000000000e+02
1.347656250000000000e+03
7.500000000000000000e+02
1.191406250000000000e+03
8.867187500000000000e+02
1.261718750000000000e+03
1.285156250000000000e+03
3.203125000000000000e+03
1.343750000000000000e+03
3.320312500000000000e+03
1.312500000000000000e+03
1.265625000000000000e+03
1.207031250000000000e+03
1.593750000000000000e+03
8.437500000000000000e+02
1.285156250000000000e+03
1.300781250000000000e+03
1.972656250000000000e+03
1.058593750000000000e+03
9.414062500000000000e+02
6.757812500000000000e+02
6.757812500000000000e+02
6.796875000000000000e+02
1.460937500000000000e+03
7.460937500000000000e+02
7.421875000000000000e+02
7.500000000000000000e+02
7.148437500000000000e+02
9.296875000000000000e+02
2.421875000000000000e+03
1.308593750000000000e+03
1.281250000000000000e+03
1.285156250000000000e+03
1.273437500000000000e+03
1.285156250000000000e+03
1.253906250000000000e+03
1.273437500000000000e+03
1.339843750000000000e+03
1.093750000000000000e+03
1.164062500000000000e+03
6.718750000000000000e+02
3.549609375000000000e+04
1.476562500000000000e+03
7.382812500000000000e+02
1.542968750000000000e+03
1.171875000000000000e+03
1.046875000000000000e+03
2.464843750000000000e+03
9.843750000000000000e+02
7.031250000000000000e+02
2.000000000000000000e+03
1.035156250000000000e+03
8.906250000000000000e+02
8.359375000000000000e+02
9.726562500000000000e+02
1.195312500000000000e+03
1.191406250000000000e+03
9.570312500000000000e+02
9.140625000000000000e+02
8.164062500000000000e+02
7.812500000000000000e+02
8.007812500000000000e+02
8.164062500000000000e+02
7.851562500000000000e+02
7.812500000000000000e+02
7.187500000000000000e+02
1.367187500000000000e+03
6.835937500000000000e+02
1.214843750000000000e+03
6.992187500000000000e+02
7.265625000000000000e+02
8.476562500000000000e+02
1.085937500000000000e+03
1.253906250000000000e+03
7.656250000000000000e+02
1.054687500000000000e+03
1.011718750000000000e+03
7.656250000000000000e+02
6.796875000000000000e+02
1.078125000000000000e+03
1.210937500000000000e+03
1.265625000000000000e+03
6.757812500000000000e+02
6.914062500000000000e+02
7.304687500000000000e+02
7.460937500000000000e+02
7.382812500000000000e+02
7.304687500000000000e+02
6.953125000000000000e+02
6.796875000000000000e+02
1.324218750000000000e+03
1.152343750000000000e+03
8.007812500000000000e+02
1.960937500000000000e+03
1.304687500000000000e+03
1.285156250000000000e+03
1.246093750000000000e+03
1.257812500000000000e+03
1.226562500000000000e+03
1.316406250000000000e+03
1.292968750000000000e+03
7.109375000000000000e+02
7.382812500000000000e+02
1.550781250000000000e+03
1.640625000000000000e+03
8.203125000000000000e+02
1.300781250000000000e+03
9.414062500000000000e+02
6.992187500000000000e+02
6.835937500000000000e+02
1.335937500000000000e+03
1.683593750000000000e+03
8.515625000000000000e+02
1.226562500000000000e+03
1.250000000000000000e+03
1.320312500000000000e+03
2.050781250000000000e+03
1.000000000000000000e+03
1.062500000000000000e+03
6.679687500000000000e+02
1.269531250000000000e+03
8.632812500000000000e+02
9.804687500000000000e+02
9.882812500000000000e+02
8.437500000000000000e+02
8.085937500000000000e+02
9.179687500000000000e+02
1.011718750000000000e+03
1.300781250000000000e+03
1.289062500000000000e+03
1.042968750000000000e+03
1.527343750000000000e+03
9.023437500000000000e+02
1.058593750000000000e+03
1.027343750000000000e+03
1.039062500000000000e+03
1.457031250000000000e+03
1.160156250000000000e+03
1.691406250000000000e+03
8.867187500000000000e+02
1.050781250000000000e+03
1.230468750000000000e+03
8.593750000000000000e+02
7.734375000000000000e+02
3.031250000000000000e+03
1.796875000000000000e+03
8.437500000000000000e+02
8.203125000000000000e+02
8.710937500000000000e+02
8.984375000000000000e+02
6.757812500000000000e+02
1.101562500000000000e+03
9.531250000000000000e+02
7.968750000000000000e+02
1.535156250000000000e+03
1.320312500000000000e+03
1.601562500000000000e+03
6.953125000000000000e+02
1.917968750000000000e+03
2.703125000000000000e+03
1.058593750000000000e+03
8.632812500000000000e+02
1.843750000000000000e+03
7.031250000000000000e+02
1.316406250000000000e+03
6.796875000000000000e+02
1.402343750000000000e+03
7.304687500000000000e+02
2.132812500000000000e+03
4.910156250000000000e+03
1.652343750000000000e+03
6.679687500000000000e+02
1.308593750000000000e+03
2.519531250000000000e+03
6.914062500000000000e+02
1.429687500000000000e+03
1.140625000000000000e+03
6.953125000000000000e+02
1.593750000000000000e+03
9.257812500000000000e+02
7.617187500000000000e+02
8.828125000000000000e+02
8.828125000000000000e+02
7.968750000000000000e+02
2.363281250000000000e+03
9.257812500000000000e+02
9.101562500000000000e+02
9.414062500000000000e+02
8.007812500000000000e+02
6.835937500000000000e+02
8.085937500000000000e+02
1.074218750000000000e+03
7.265625000000000000e+02
8.554687500000000000e+02
1.019531250000000000e+03
8.593750000000000000e+02
7.187500000000000000e+02
7.656250000000000000e+02
8.929687500000000000e+03
1.175781250000000000e+03
1.332031250000000000e+03
1.226562500000000000e+03
9.218750000000000000e+02
1.429687500000000000e+03
1.117187500000000000e+03
7.343750000000000000e+02
8.164062500000000000e+02
9.218750000000000000e+02
6.875000000000000000e+02
1.660156250000000000e+03
8.007812500000000000e+02
7.308203125000000000e+04
1.300781250000000000e+03
1.621093750000000000e+03
1.082031250000000000e+03
1.089843750000000000e+03
1.171875000000000000e+03
6.679687500000000000e+02
8.828125000000000000e+02
8.593750000000000000e+02
1.359375000000000000e+03
7.226562500000000000e+02
8.867187500000000000e+02
9.062500000000000000e+02
1.140625000000000000e+03
2.207031250000000000e+03
7.578125000000000000e+02
9.296875000000000000e+02
7.578125000000000000e+02
6.992187500000000000e+02
8.867187500000000000e+02
6.796875000000000000e+02
1.269531250000000000e+03
9.609375000000000000e+02
1.332031250000000000e+03
7.421875000000000000e+02
8.359375000000000000e+02
1.628906250000000000e+03
1.035156250000000000e+03
1.535156250000000000e+03
1.199218750000000000e+03
7.539062500000000000e+02
1.289062500000000000e+03
1.050781250000000000e+03
8.476562500000000000e+02
8.203125000000000000e+02
9.101562500000000000e+02
1.132812500000000000e+03
1.156250000000000000e+03
1.382812500000000000e+03
1.500000000000000000e+03
9.062500000000000000e+02
7.109375000000000000e+02
8.359375000000000000e+02
7.773437500000000000e+02
6.835937500000000000e+02
7.890625000000000000e+02
7.812500000000000000e+02
1.070312500000000000e+03
6.835937500000000000e+02
9.062500000000000000e+02
9.218750000000000000e+02
1.742187500000000000e+03
8.710937500000000000e+02
1.058593750000000000e+03
1.316406250000000000e+03
1.242187500000000000e+03
7.031250000000000000e+02
6.718750000000000000e+02
1.277343750000000000e+03
7.578125000000000000e+02
8.281250000000000000e+02
8.828125000000000000e+02
1.750000000000000000e+03
1.691406250000000000e+03
1.871093750000000000e+03
1.277343750000000000e+03
6.679687500000000000e+02
6.992187500000000000e+02
6.953125000000000000e+02
1.398437500000000000e+03
6.914062500000000000e+02
1.035156250000000000e+03
9.609375000000000000e+02
6.679687500000000000e+02
6.718750000000000000e+02
1.292968750000000000e+03
6.718750000000000000e+02
1.292968750000000000e+03
6.757812500000000000e+02
6.718750000000000000e+02
6.835937500000000000e+02
7.109375000000000000e+02
7.109375000000000000e+02
2.031250000000000000e+03
1.300781250000000000e+03
6.757812500000000000e+02
6.718750000000000000e+02
6.757812500000000000e+02
7.382812500000000000e+02
1.437500000000000000e+03
1.378906250000000000e+03
1.328125000000000000e+03
2.003906250000000000e+03
6.679687500000000000e+02
6.679687500000000000e+02
1.304687500000000000e+03
6.718750000000000000e+02
6.679687500000000000e+02
7.187500000000000000e+02
7.460937500000000000e+02
7.070312500000000000e+02
7.500000000000000000e+02
7.109375000000000000e+02
6.875000000000000000e+02
6.796875000000000000e+02
6.718750000000000000e+02
1.316406250000000000e+03
1.964843750000000000e+03
7.734375000000000000e+02
1.800781250000000000e+03
1.292968750000000000e+03
1.855468750000000000e+03
8.203125000000000000e+02
6.718750000000000000e+02
1.625000000000000000e+03
1.285156250000000000e+03
6.679687500000000000e+02
6.718750000000000000e+02
6.875000000000000000e+02
6.914062500000000000e+02
1.328125000000000000e+03
1.339843750000000000e+03
6.679687500000000000e+02
1.332031250000000000e+03
2.656250000000000000e+03
1.332031250000000000e+03
1.375000000000000000e+03
7.031250000000000000e+02
7.070312500000000000e+02
7.070312500000000000e+02
5.257812500000000000e+03
2.128906250000000000e+03
3.664062500000000000e+03
1.351562500000000000e+03
1.968750000000000000e+03
1.300781250000000000e+03
3.320312500000000000e+03
1.296875000000000000e+03
1.964843750000000000e+03
6.679687500000000000e+02
6.875000000000000000e+02
6.718750000000000000e+02
1.976562500000000000e+03
1.285156250000000000e+03
6.679687500000000000e+02
1.281250000000000000e+03
1.367187500000000000e+03
6.796875000000000000e+02
6.992187500000000000e+02
6.875000000000000000e+02
2.031250000000000000e+03
1.335937500000000000e+03
6.796875000000000000e+02
6.914062500000000000e+02
6.757812500000000000e+02
4.699218750000000000e+03
1.343750000000000000e+03
6.757812500000000000e+02
1.347656250000000000e+03
1.355468750000000000e+03
1.316406250000000000e+03
8.554687500000000000e+02
3.140625000000000000e+03
1.335937500000000000e+03
8.984375000000000000e+02
1.085937500000000000e+03
1.164062500000000000e+03
8.085937500000000000e+02
1.289062500000000000e+03
2.917968750000000000e+03
4.011718750000000000e+03
4.285156250000000000e+03
1.968750000000000000e+03
4.386718750000000000e+03
1.324218750000000000e+03
7.070312500000000000e+02
7.085937500000000000e+03
3.761718750000000000e+03
1.718750000000000000e+03
6.574218750000000000e+03
1.316406250000000000e+03
1.304687500000000000e+03
2.042968750000000000e+03
2.339843750000000000e+03
1.109375000000000000e+03
3.203125000000000000e+03
1.988281250000000000e+03
6.718750000000000000e+02
1.335937500000000000e+03
9.960937500000000000e+02
2.968750000000000000e+03
8.339843750000000000e+03
7.285156250000000000e+03
4.589843750000000000e+03
1.328125000000000000e+03
6.375000000000000000e+03
