7.617187500000000000e+02
7.382812500000000000e+02
7.343750000000000000e+02
7.421875000000000000e+02
7.460937500000000000e+02
7.734375000000000000e+02
8.242187500000000000e+02
8.007812500000000000e+02
1.148437500000000000e+03
1.164062500000000000e+03
7.578125000000000000e+02
7.734375000000000000e+02
8.164062500000000000e+02
8.203125000000000000e+02
9.062500000000000000e+02
8.750000000000000000e+02
1.324218750000000000e+03
8.242187500000000000e+02
1.277343750000000000e+03
3.027343750000000000e+03
1.792968750000000000e+03
6.875000000000000000e+02
1.164062500000000000e+03
7.851562500000000000e+02
6.835937500000000000e+02
7.500000000000000000e+02
9.648437500000000000e+02
6.875000000000000000e+02
6.796875000000000000e+02
7.695312500000000000e+02
7.812500000000000000e+02
1.035156250000000000e+03
6.796875000000000000e+02
7.382812500000000000e+02
7.460937500000000000e+02
7.031250000000000000e+02
7.304687500000000000e+02
7.343750000000000000e+02
7.343750000000000000e+02
7.343750000000000000e+02
7.148437500000000000e+02
7.187500000000000000e+02
7.148437500000000000e+02
6.992187500000000000e+02
6.992187500000000000e+02
6.992187500000000000e+02
6.875000000000000000e+02
6.992187500000000000e+02
6.992187500000000000e+02
7.148437500000000000e+02
7.343750000000000000e+02
7.500000000000000000e+02
7.500000000000000000e+02
7.343750000000000000e+02
7.500000000000000000e+02
7.187500000000000000e+02
6.992187500000000000e+02
7.187500000000000000e+02
1.464843750000000000e+03
7.187500000000000000e+02
7.148437500000000000e+02
7.226562500000000000e+02
7.148437500000000000e+02
7.304687500000000000e+02
7.343750000000000000e+02
7.343750000000000000e+02
7.031250000000000000e+02
7.031250000000000000e+02
7.148437500000000000e+02
7.304687500000000000e+02
7.695312500000000000e+02
7.187500000000000000e+02
6.992187500000000000e+02
7.343750000000000000e+02
1.199218750000000000e+03
7.187500000000000000e+02
1.011718750000000000e+03
8.554687500000000000e+02
7.656250000000000000e+02
7.500000000000000000e+02
1.519531250000000000e+03
7.656250000000000000e+02
7.890625000000000000e+02
9.960937500000000000e+02
1.226562500000000000e+03
8.750000000000000000e+02
7.187500000000000000e+02
7.148437500000000000e+02
7.148437500000000000e+02
7.031250000000000000e+02
7.031250000000000000e+02
7.109375000000000000e+02
1.183593750000000000e+03
6.679687500000000000e+02
7.343750000000000000e+02
6.835937500000000000e+02
1.082031250000000000e+03
7.421875000000000000e+02
7.773437500000000000e+02
7.851562500000000000e+02
7.812500000000000000e+02
7.539062500000000000e+02
7.539062500000000000e+02
7.656250000000000000e+02
7.500000000000000000e+02
8.281250000000000000e+02
6.679687500000000000e+02
7.421875000000000000e+02
7.929687500000000000e+02
7.773437500000000000e+02
7.734375000000000000e+02
7.773437500000000000e+02
2.328125000000000000e+03
7.617187500000000000e+02
7.343750000000000000e+02
6.875000000000000000e+02
7.226562500000000000e+02
8.437500000000000000e+02
7.343750000000000000e+02
1.082031250000000000e+03
2.054687500000000000e+03
8.320312500000000000e+02
8.203125000000000000e+02
8.164062500000000000e+02
1.222656250000000000e+03
1.230468750000000000e+03
9.843750000000000000e+02
1.125000000000000000e+03
7.226562500000000000e+02
7.929687500000000000e+02
8.125000000000000000e+02
7.812500000000000000e+02
7.148437500000000000e+02
6.718750000000000000e+02
7.617187500000000000e+02
9.687500000000000000e+02
1.253906250000000000e+03
7.773437500000000000e+02
1.234375000000000000e+03
1.066406250000000000e+03
8.164062500000000000e+02
1.132812500000000000e+03
1.031250000000000000e+03
6.718750000000000000e+02
8.632812500000000000e+02
9.609375000000000000e+02
6.914062500000000000e+02
1.070312500000000000e+03
1.234375000000000000e+03
7.031250000000000000e+02
8.867187500000000000e+02
8.320312500000000000e+02
6.992187500000000000e+02
6.796875000000000000e+02
6.914062500000000000e+02
7.148437500000000000e+02
1.523437500000000000e+03
8.437500000000000000e+02
7.851562500000000000e+02
1.816406250000000000e+03
1.281250000000000000e+03
1.000000000000000000e+03
1.367187500000000000e+03
1.164062500000000000e+03
8.398437500000000000e+02
1.210937500000000000e+03
6.679687500000000000e+02
6.796875000000000000e+02
1.539062500000000000e+03
7.226562500000000000e+02
9.804687500000000000e+02
7.968750000000000000e+02
1.238281250000000000e+03
1.031250000000000000e+03
1.218750000000000000e+03
1.050781250000000000e+03
9.687500000000000000e+02
1.062500000000000000e+03
8.007812500000000000e+02
8.281250000000000000e+02
8.281250000000000000e+02
8.437500000000000000e+02
8.632812500000000000e+02
8.671875000000000000e+02
8.515625000000000000e+02
8.515625000000000000e+02
8.359375000000000000e+02
8.203125000000000000e+02
7.968750000000000000e+02
8.007812500000000000e+02
7.773437500000000000e+02
7.890625000000000000e+02
7.617187500000000000e+02
8.710937500000000000e+02
1.074218750000000000e+03
8.281250000000000000e+02
1.121093750000000000e+03
7.812500000000000000e+02
8.046875000000000000e+02
8.789062500000000000e+02
7.890625000000000000e+02
7.851562500000000000e+02
7.812500000000000000e+02
2.226562500000000000e+03
8.046875000000000000e+02
8.203125000000000000e+02
7.812500000000000000e+02
8.046875000000000000e+02
8.164062500000000000e+02
8.164062500000000000e+02
8.125000000000000000e+02
8.164062500000000000e+02
8.359375000000000000e+02
8.359375000000000000e+02
7.812500000000000000e+02
7.421875000000000000e+02
7.500000000000000000e+02
8.085937500000000000e+02
7.460937500000000000e+02
9.570312500000000000e+02
8.750000000000000000e+02
8.398437500000000000e+02
8.437500000000000000e+02
8.164062500000000000e+02
8.242187500000000000e+02
8.437500000000000000e+02
8.476562500000000000e+02
8.125000000000000000e+02
8.750000000000000000e+02
8.632812500000000000e+02
8.515625000000000000e+02
8.750000000000000000e+02
1.152343750000000000e+03
8.359375000000000000e+02
6.835937500000000000e+02
6.796875000000000000e+02
8.515625000000000000e+02
8.593750000000000000e+02
8.515625000000000000e+02
8.164062500000000000e+02
7.929687500000000000e+02
7.734375000000000000e+02
8.164062500000000000e+02
7.734375000000000000e+02
8.203125000000000000e+02
8.242187500000000000e+02
8.515625000000000000e+02
8.359375000000000000e+02
8.437500000000000000e+02
2.472656250000000000e+03
8.398437500000000000e+02
8.203125000000000000e+02
8.085937500000000000e+02
8.554687500000000000e+02
8.867187500000000000e+02
8.476562500000000000e+02
9.257812500000000000e+02
8.359375000000000000e+02
8.671875000000000000e+02
8.867187500000000000e+02
8.984375000000000000e+02
9.140625000000000000e+02
8.828125000000000000e+02
8.515625000000000000e+02
8.437500000000000000e+02
8.007812500000000000e+02
1.253906250000000000e+03
1.179687500000000000e+03
8.750000000000000000e+02
8.593750000000000000e+02
8.046875000000000000e+02
8.437500000000000000e+02
8.554687500000000000e+02
8.515625000000000000e+02
8.125000000000000000e+02
8.398437500000000000e+02
8.437500000000000000e+02
8.476562500000000000e+02
8.164062500000000000e+02
8.554687500000000000e+02
8.945312500000000000e+02
8.828125000000000000e+02
8.398437500000000000e+02
8.828125000000000000e+02
8.632812500000000000e+02
8.164062500000000000e+02
8.320312500000000000e+02
8.359375000000000000e+02
8.164062500000000000e+02
8.125000000000000000e+02
8.320312500000000000e+02
8.750000000000000000e+02
8.164062500000000000e+02
8.125000000000000000e+02
8.007812500000000000e+02
8.164062500000000000e+02
7.851562500000000000e+02
7.890625000000000000e+02
7.929687500000000000e+02
7.812500000000000000e+02
8.085937500000000000e+02
8.359375000000000000e+02
8.437500000000000000e+02
8.515625000000000000e+02
8.203125000000000000e+02
8.164062500000000000e+02
7.773437500000000000e+02
7.851562500000000000e+02
7.851562500000000000e+02
8.007812500000000000e+02
7.656250000000000000e+02
8.046875000000000000e+02
8.007812500000000000e+02
7.968750000000000000e+02
7.343750000000000000e+02
8.710937500000000000e+02
7.617187500000000000e+02
7.734375000000000000e+02
7.773437500000000000e+02
8.046875000000000000e+02
7.968750000000000000e+02
1.019531250000000000e+03
1.214843750000000000e+03
6.992187500000000000e+02
7.382812500000000000e+02
1.015625000000000000e+03
8.828125000000000000e+02
8.984375000000000000e+02
1.351562500000000000e+03
1.015625000000000000e+03
6.992187500000000000e+02
1.164062500000000000e+03
7.031250000000000000e+02
1.031250000000000000e+03
6.679687500000000000e+02
7.187500000000000000e+02
8.750000000000000000e+02
7.617187500000000000e+02
8.828125000000000000e+02
9.882812500000000000e+02
9.101562500000000000e+02
9.062500000000000000e+02
9.375000000000000000e+02
9.101562500000000000e+02
9.101562500000000000e+02
9.335937500000000000e+02
8.671875000000000000e+02
1.656250000000000000e+03
7.812500000000000000e+02
7.929687500000000000e+02
7.773437500000000000e+02
8.007812500000000000e+02
8.320312500000000000e+02
8.398437500000000000e+02
9.609375000000000000e+02
6.992187500000000000e+02
6.796875000000000000e+02
6.718750000000000000e+02
6.914062500000000000e+02
1.402343750000000000e+03
8.789062500000000000e+02
8.945312500000000000e+02
8.867187500000000000e+02
8.632812500000000000e+02
8.085937500000000000e+02
8.085937500000000000e+02
8.046875000000000000e+02
8.320312500000000000e+02
7.968750000000000000e+02
8.242187500000000000e+02
8.281250000000000000e+02
8.046875000000000000e+02
7.968750000000000000e+02
8.242187500000000000e+02
8.164062500000000000e+02
7.929687500000000000e+02
8.007812500000000000e+02
7.929687500000000000e+02
7.812500000000000000e+02
7.617187500000000000e+02
7.539062500000000000e+02
7.812500000000000000e+02
7.695312500000000000e+02
7.812500000000000000e+02
8.046875000000000000e+02
8.320312500000000000e+02
8.046875000000000000e+02
7.968750000000000000e+02
8.164062500000000000e+02
1.164062500000000000e+03
1.222656250000000000e+03
7.890625000000000000e+02
7.617187500000000000e+02
7.460937500000000000e+02
7.382812500000000000e+02
7.773437500000000000e+02
7.851562500000000000e+02
7.656250000000000000e+02
7.695312500000000000e+02
7.851562500000000000e+02
8.125000000000000000e+02
7.851562500000000000e+02
8.007812500000000000e+02
7.890625000000000000e+02
8.125000000000000000e+02
7.812500000000000000e+02
8.046875000000000000e+02
7.812500000000000000e+02
7.695312500000000000e+02
7.695312500000000000e+02
8.007812500000000000e+02
8.125000000000000000e+02
7.851562500000000000e+02
8.007812500000000000e+02
8.164062500000000000e+02
8.164062500000000000e+02
7.812500000000000000e+02
7.851562500000000000e+02
7.695312500000000000e+02
7.500000000000000000e+02
7.460937500000000000e+02
7.734375000000000000e+02
8.007812500000000000e+02
7.617187500000000000e+02
7.656250000000000000e+02
7.695312500000000000e+02
8.007812500000000000e+02
7.695312500000000000e+02
8.125000000000000000e+02
8.359375000000000000e+02
7.851562500000000000e+02
7.890625000000000000e+02
8.281250000000000000e+02
1.113281250000000000e+03
6.718750000000000000e+02
6.679687500000000000e+02
6.992187500000000000e+02
8.007812500000000000e+02
6.835937500000000000e+02
9.179687500000000000e+02
8.164062500000000000e+02
1.292968750000000000e+03
8.085937500000000000e+02
8.320312500000000000e+02
1.171875000000000000e+03
1.000000000000000000e+03
1.484375000000000000e+03
1.078125000000000000e+03
1.085937500000000000e+03
1.550781250000000000e+03
9.492187500000000000e+02
1.269531250000000000e+03
3.582031250000000000e+03
8.828125000000000000e+02
7.187500000000000000e+02
7.500000000000000000e+02
9.843750000000000000e+02
1.417968750000000000e+03
2.101562500000000000e+03
7.343750000000000000e+02
7.812500000000000000e+02
1.539062500000000000e+03
1.046875000000000000e+03
2.019531250000000000e+03
1.367187500000000000e+03
3.144531250000000000e+03
7.265625000000000000e+02
