6.875000000000000000e+02
7.109375000000000000e+02
6.992187500000000000e+02
7.031250000000000000e+02
7.148437500000000000e+02
1.296875000000000000e+03
8.046875000000000000e+02
7.343750000000000000e+02
7.109375000000000000e+02
6.992187500000000000e+02
1.386718750000000000e+03
7.148437500000000000e+02
6.992187500000000000e+02
6.835937500000000000e+02
7.148437500000000000e+02
7.343750000000000000e+02
7.500000000000000000e+02
7.382812500000000000e+02
7.500000000000000000e+02
7.460937500000000000e+02
7.578125000000000000e+02
7.617187500000000000e+02
7.460937500000000000e+02
7.539062500000000000e+02
7.812500000000000000e+02
8.515625000000000000e+02
1.148437500000000000e+03
1.753906250000000000e+03
7.343750000000000000e+02
7.617187500000000000e+02
7.382812500000000000e+02
7.187500000000000000e+02
7.500000000000000000e+02
7.500000000000000000e+02
7.929687500000000000e+02
7.890625000000000000e+02
7.656250000000000000e+02
7.500000000000000000e+02
7.617187500000000000e+02
7.539062500000000000e+02
7.460937500000000000e+02
1.218750000000000000e+03
1.132812500000000000e+03
6.679687500000000000e+02
7.343750000000000000e+02
7.656250000000000000e+02
7.656250000000000000e+02
7.539062500000000000e+02
7.812500000000000000e+02
7.617187500000000000e+02
7.812500000000000000e+02
7.695312500000000000e+02
7.500000000000000000e+02
7.656250000000000000e+02
7.382812500000000000e+02
7.148437500000000000e+02
7.382812500000000000e+02
7.226562500000000000e+02
7.421875000000000000e+02
7.617187500000000000e+02
7.539062500000000000e+02
7.304687500000000000e+02
7.500000000000000000e+02
7.460937500000000000e+02
1.218750000000000000e+03
9.843750000000000000e+02
7.304687500000000000e+02
7.343750000000000000e+02
1.480468750000000000e+03
7.539062500000000000e+02
1.480468750000000000e+03
7.343750000000000000e+02
1.480468750000000000e+03
1.429687500000000000e+03
7.070312500000000000e+02
6.679687500000000000e+02
6.757812500000000000e+02
6.679687500000000000e+02
9.843750000000000000e+02
9.960937500000000000e+02
7.539062500000000000e+02
6.835937500000000000e+02
6.953125000000000000e+02
7.070312500000000000e+02
6.757812500000000000e+02
7.226562500000000000e+02
7.500000000000000000e+02
7.656250000000000000e+02
7.500000000000000000e+02
7.656250000000000000e+02
1.515625000000000000e+03
7.304687500000000000e+02
1.468750000000000000e+03
7.031250000000000000e+02
7.382812500000000000e+02
7.304687500000000000e+02
7.304687500000000000e+02
7.656250000000000000e+02
7.656250000000000000e+02
7.539062500000000000e+02
7.617187500000000000e+02
7.695312500000000000e+02
1.003906250000000000e+03
1.265625000000000000e+03
7.656250000000000000e+02
1.031250000000000000e+03
1.253906250000000000e+03
7.148437500000000000e+02
1.257812500000000000e+03
7.226562500000000000e+02
1.054687500000000000e+03
1.417968750000000000e+03
8.671875000000000000e+02
7.148437500000000000e+02
7.226562500000000000e+02
7.421875000000000000e+02
7.539062500000000000e+02
7.617187500000000000e+02
7.343750000000000000e+02
7.500000000000000000e+02
1.269531250000000000e+03
8.164062500000000000e+02
9.179687500000000000e+02
8.203125000000000000e+02
8.828125000000000000e+02
9.296875000000000000e+02
1.097656250000000000e+03
7.031250000000000000e+02
8.671875000000000000e+02
8.515625000000000000e+02
8.476562500000000000e+02
8.125000000000000000e+02
7.851562500000000000e+02
7.304687500000000000e+02
7.187500000000000000e+02
9.179687500000000000e+02
7.500000000000000000e+02
9.335937500000000000e+02
8.515625000000000000e+02
8.750000000000000000e+02
8.710937500000000000e+02
8.320312500000000000e+02
7.968750000000000000e+02
8.007812500000000000e+02
8.320312500000000000e+02
1.066406250000000000e+03
1.398437500000000000e+03
7.812500000000000000e+02
7.695312500000000000e+02
7.656250000000000000e+02
8.125000000000000000e+02
8.398437500000000000e+02
8.437500000000000000e+02
8.359375000000000000e+02
8.164062500000000000e+02
7.812500000000000000e+02
8.007812500000000000e+02
8.007812500000000000e+02
8.359375000000000000e+02
8.085937500000000000e+02
8.164062500000000000e+02
1.085937500000000000e+03
7.148437500000000000e+02
6.679687500000000000e+02
8.359375000000000000e+02
8.007812500000000000e+02
8.320312500000000000e+02
8.476562500000000000e+02
8.007812500000000000e+02
8.007812500000000000e+02
8.164062500000000000e+02
8.281250000000000000e+02
8.046875000000000000e+02
8.125000000000000000e+02
8.125000000000000000e+02
7.890625000000000000e+02
7.968750000000000000e+02
8.203125000000000000e+02
7.109375000000000000e+02
8.984375000000000000e+02
7.890625000000000000e+02
7.929687500000000000e+02
6.679687500000000000e+02
8.984375000000000000e+02
7.695312500000000000e+02
7.968750000000000000e+02
7.851562500000000000e+02
7.851562500000000000e+02
8.203125000000000000e+02
8.125000000000000000e+02
8.320312500000000000e+02
7.968750000000000000e+02
7.187500000000000000e+02
8.984375000000000000e+02
7.851562500000000000e+02
7.695312500000000000e+02
7.929687500000000000e+02
8.398437500000000000e+02
8.515625000000000000e+02
8.515625000000000000e+02
8.242187500000000000e+02
8.554687500000000000e+02
8.320312500000000000e+02
7.968750000000000000e+02
8.046875000000000000e+02
7.773437500000000000e+02
7.695312500000000000e+02
1.453125000000000000e+03
7.148437500000000000e+02
7.500000000000000000e+02
7.617187500000000000e+02
8.203125000000000000e+02
8.164062500000000000e+02
8.515625000000000000e+02
8.281250000000000000e+02
8.203125000000000000e+02
7.656250000000000000e+02
7.500000000000000000e+02
7.695312500000000000e+02
7.656250000000000000e+02
8.007812500000000000e+02
7.812500000000000000e+02
8.007812500000000000e+02
8.007812500000000000e+02
8.359375000000000000e+02
8.242187500000000000e+02
8.203125000000000000e+02
8.007812500000000000e+02
8.320312500000000000e+02
8.007812500000000000e+02
8.164062500000000000e+02
7.968750000000000000e+02
7.812500000000000000e+02
7.695312500000000000e+02
7.851562500000000000e+02
7.968750000000000000e+02
7.812500000000000000e+02
7.812500000000000000e+02
7.851562500000000000e+02
8.164062500000000000e+02
8.281250000000000000e+02
8.203125000000000000e+02
8.164062500000000000e+02
7.460937500000000000e+02
9.023437500000000000e+02
8.164062500000000000e+02
8.281250000000000000e+02
8.554687500000000000e+02
8.476562500000000000e+02
7.968750000000000000e+02
8.164062500000000000e+02
8.164062500000000000e+02
8.007812500000000000e+02
8.007812500000000000e+02
8.007812500000000000e+02
8.125000000000000000e+02
7.890625000000000000e+02
8.164062500000000000e+02
7.968750000000000000e+02
8.007812500000000000e+02
7.929687500000000000e+02
8.710937500000000000e+02
8.828125000000000000e+02
8.359375000000000000e+02
8.476562500000000000e+02
8.359375000000000000e+02
8.046875000000000000e+02
8.085937500000000000e+02
8.085937500000000000e+02
8.437500000000000000e+02
8.320312500000000000e+02
8.007812500000000000e+02
8.046875000000000000e+02
8.125000000000000000e+02
8.007812500000000000e+02
7.890625000000000000e+02
8.085937500000000000e+02
8.007812500000000000e+02
7.734375000000000000e+02
8.125000000000000000e+02
8.007812500000000000e+02
1.617187500000000000e+03
8.164062500000000000e+02
7.968750000000000000e+02
9.257812500000000000e+02
9.921875000000000000e+02
1.015625000000000000e+03
7.148437500000000000e+02
7.031250000000000000e+02
8.515625000000000000e+02
7.812500000000000000e+02
1.000000000000000000e+03
1.250000000000000000e+03
1.144531250000000000e+03
7.265625000000000000e+02
7.265625000000000000e+02
6.875000000000000000e+02
1.078125000000000000e+03
9.843750000000000000e+02
1.050781250000000000e+03
7.031250000000000000e+02
8.359375000000000000e+02
1.296875000000000000e+03
8.671875000000000000e+02
6.953125000000000000e+02
2.000000000000000000e+03
1.128906250000000000e+03
1.015625000000000000e+03
6.679687500000000000e+02
1.585937500000000000e+03
7.968750000000000000e+02
7.968750000000000000e+02
7.734375000000000000e+02
7.656250000000000000e+02
6.992187500000000000e+02
7.929687500000000000e+02
7.734375000000000000e+02
7.812500000000000000e+02
7.617187500000000000e+02
7.773437500000000000e+02
8.085937500000000000e+02
8.320312500000000000e+02
1.675781250000000000e+03
7.695312500000000000e+02
7.773437500000000000e+02
7.656250000000000000e+02
7.500000000000000000e+02
7.226562500000000000e+02
7.695312500000000000e+02
7.656250000000000000e+02
7.617187500000000000e+02
7.460937500000000000e+02
7.734375000000000000e+02
7.890625000000000000e+02
7.695312500000000000e+02
7.656250000000000000e+02
7.812500000000000000e+02
1.550781250000000000e+03
1.542968750000000000e+03
7.812500000000000000e+02
7.578125000000000000e+02
7.578125000000000000e+02
7.695312500000000000e+02
7.734375000000000000e+02
7.578125000000000000e+02
7.421875000000000000e+02
7.265625000000000000e+02
1.382812500000000000e+03
6.914062500000000000e+02
1.402343750000000000e+03
7.148437500000000000e+02
7.148437500000000000e+02
7.226562500000000000e+02
1.355468750000000000e+03
8.007812500000000000e+02
1.242187500000000000e+03
9.414062500000000000e+02
1.273437500000000000e+03
9.140625000000000000e+02
1.585937500000000000e+03
1.316406250000000000e+03
1.296875000000000000e+03
6.992187500000000000e+02
1.132812500000000000e+03
9.375000000000000000e+02
7.968750000000000000e+02
7.929687500000000000e+02
1.089843750000000000e+03
7.460937500000000000e+02
1.019531250000000000e+03
1.097656250000000000e+03
1.039062500000000000e+03
8.281250000000000000e+02
8.476562500000000000e+02
1.097656250000000000e+03
1.289062500000000000e+03
7.578125000000000000e+02
7.812500000000000000e+02
1.582031250000000000e+03
1.363281250000000000e+03
1.101562500000000000e+03
1.085937500000000000e+03
1.710937500000000000e+03
7.851562500000000000e+02
8.828125000000000000e+02
9.140625000000000000e+02
8.164062500000000000e+02
8.320312500000000000e+02
8.281250000000000000e+02
9.921875000000000000e+02
1.289062500000000000e+03
9.414062500000000000e+02
7.382812500000000000e+02
7.500000000000000000e+02
8.593750000000000000e+02
8.554687500000000000e+02
1.113281250000000000e+03
8.125000000000000000e+02
8.281250000000000000e+02
7.460937500000000000e+02
1.203125000000000000e+03
1.019531250000000000e+03
1.449218750000000000e+03
6.992187500000000000e+02
7.148437500000000000e+02
7.968750000000000000e+02
7.812500000000000000e+02
1.203125000000000000e+03
6.992187500000000000e+02
6.679687500000000000e+02
1.023437500000000000e+03
1.289062500000000000e+03
1.054687500000000000e+03
1.492187500000000000e+03
1.097656250000000000e+03
1.234375000000000000e+03
1.402343750000000000e+03
7.539062500000000000e+02
1.429687500000000000e+03
6.835937500000000000e+02
1.882812500000000000e+03
9.609375000000000000e+02
6.953125000000000000e+02
1.378906250000000000e+03
1.097656250000000000e+03
9.257812500000000000e+02
6.757812500000000000e+02
7.343750000000000000e+02
1.152343750000000000e+03
7.812500000000000000e+02
6.796875000000000000e+02
6.875000000000000000e+02
6.953125000000000000e+02
6.953125000000000000e+02
6.875000000000000000e+02
7.382812500000000000e+02
9.453125000000000000e+02
1.210937500000000000e+03
6.875000000000000000e+02
6.835937500000000000e+02
6.835937500000000000e+02
