1.300781250000000000e+03
1.265625000000000000e+03
7.812500000000000000e+02
1.082031250000000000e+03
1.933593750000000000e+03
1.382812500000000000e+03
7.304687500000000000e+02
7.031250000000000000e+02
7.304687500000000000e+02
1.500000000000000000e+03
7.539062500000000000e+02
3.053906250000000000e+04
8.476562500000000000e+02
1.023437500000000000e+03
9.101562500000000000e+02
7.109375000000000000e+02
8.867187500000000000e+02
1.175781250000000000e+03
1.222656250000000000e+03
7.539062500000000000e+02
1.316406250000000000e+03
7.304687500000000000e+02
7.226562500000000000e+02
6.679687500000000000e+02
1.148437500000000000e+03
7.460937500000000000e+02
8.359375000000000000e+02
1.183593750000000000e+03
1.316406250000000000e+03
6.796875000000000000e+02
7.031250000000000000e+02
7.148437500000000000e+02
6.875000000000000000e+02
7.031250000000000000e+02
6.953125000000000000e+02
1.621093750000000000e+03
1.113281250000000000e+03
1.335937500000000000e+03
1.648437500000000000e+03
9.843750000000000000e+02
1.964843750000000000e+03
2.714843750000000000e+03
9.296875000000000000e+02
8.242187500000000000e+02
2.187500000000000000e+03
9.804687500000000000e+02
1.601562500000000000e+03
1.515625000000000000e+03
1.316406250000000000e+03
1.980468750000000000e+03
1.949218750000000000e+03
1.300781250000000000e+03
6.718750000000000000e+02
7.109375000000000000e+02
7.304687500000000000e+02
7.578125000000000000e+02
7.734375000000000000e+02
7.890625000000000000e+02
7.460937500000000000e+02
7.148437500000000000e+02
6.992187500000000000e+02
7.031250000000000000e+02
6.992187500000000000e+02
1.367187500000000000e+03
1.312500000000000000e+03
1.886718750000000000e+03
1.332031250000000000e+03
7.656250000000000000e+02
8.046875000000000000e+02
7.968750000000000000e+02
8.203125000000000000e+02
8.125000000000000000e+02
7.695312500000000000e+02
7.617187500000000000e+02
7.500000000000000000e+02
7.382812500000000000e+02
7.148437500000000000e+02
6.992187500000000000e+02
1.371093750000000000e+03
6.796875000000000000e+02
6.679687500000000000e+02
1.953125000000000000e+03
1.261718750000000000e+03
1.265625000000000000e+03
1.335937500000000000e+03
7.031250000000000000e+02
1.437500000000000000e+03
7.070312500000000000e+02
6.835937500000000000e+02
3.339843750000000000e+03
6.757812500000000000e+02
6.679687500000000000e+02
6.679687500000000000e+02
6.718750000000000000e+02
1.332031250000000000e+03
6.757812500000000000e+02
6.718750000000000000e+02
6.953125000000000000e+02
1.367187500000000000e+03
1.984375000000000000e+03
6.718750000000000000e+02
6.757812500000000000e+02
6.718750000000000000e+02
6.875000000000000000e+02
6.953125000000000000e+02
7.031250000000000000e+02
6.953125000000000000e+02
6.875000000000000000e+02
6.953125000000000000e+02
7.031250000000000000e+02
6.835937500000000000e+02
6.796875000000000000e+02
1.320312500000000000e+03
1.960937500000000000e+03
1.300781250000000000e+03
1.300781250000000000e+03
1.347656250000000000e+03
6.875000000000000000e+02
7.109375000000000000e+02
6.992187500000000000e+02
6.835937500000000000e+02
6.679687500000000000e+02
1.296875000000000000e+03
1.250000000000000000e+03
1.253906250000000000e+03
1.335937500000000000e+03
7.148437500000000000e+02
7.421875000000000000e+02
7.382812500000000000e+02
7.148437500000000000e+02
7.148437500000000000e+02
7.031250000000000000e+02
7.031250000000000000e+02
6.992187500000000000e+02
6.953125000000000000e+02
7.031250000000000000e+02
7.109375000000000000e+02
7.148437500000000000e+02
7.031250000000000000e+02
6.992187500000000000e+02
6.992187500000000000e+02
2.000000000000000000e+03
1.335937500000000000e+03
7.148437500000000000e+02
7.460937500000000000e+02
7.382812500000000000e+02
8.007812500000000000e+02
8.593750000000000000e+02
8.203125000000000000e+02
7.968750000000000000e+02
7.734375000000000000e+02
7.617187500000000000e+02
7.304687500000000000e+02
7.148437500000000000e+02
7.148437500000000000e+02
7.070312500000000000e+02
6.992187500000000000e+02
6.914062500000000000e+02
6.914062500000000000e+02
6.757812500000000000e+02
6.718750000000000000e+02
6.757812500000000000e+02
6.757812500000000000e+02
1.335937500000000000e+03
6.757812500000000000e+02
6.757812500000000000e+02
6.953125000000000000e+02
6.875000000000000000e+02
6.757812500000000000e+02
6.835937500000000000e+02
6.835937500000000000e+02
6.796875000000000000e+02
6.835937500000000000e+02
1.316406250000000000e+03
1.296875000000000000e+03
1.339843750000000000e+03
7.031250000000000000e+02
7.343750000000000000e+02
7.382812500000000000e+02
7.226562500000000000e+02
7.109375000000000000e+02
7.031250000000000000e+02
7.070312500000000000e+02
6.992187500000000000e+02
6.953125000000000000e+02
6.835937500000000000e+02
6.718750000000000000e+02
6.718750000000000000e+02
1.144531250000000000e+03
8.593750000000000000e+02
1.343750000000000000e+03
1.347656250000000000e+03
6.992187500000000000e+02
6.875000000000000000e+02
6.992187500000000000e+02
1.382812500000000000e+03
1.335937500000000000e+03
1.296875000000000000e+03
1.335937500000000000e+03
6.835937500000000000e+02
7.031250000000000000e+02
6.875000000000000000e+02
6.914062500000000000e+02
6.757812500000000000e+02
1.328125000000000000e+03
1.285156250000000000e+03
1.261718750000000000e+03
1.289062500000000000e+03
1.289062500000000000e+03
1.308593750000000000e+03
6.875000000000000000e+02
6.875000000000000000e+02
1.347656250000000000e+03
1.324218750000000000e+03
1.925781250000000000e+03
1.937500000000000000e+03
1.300781250000000000e+03
1.324218750000000000e+03
1.324218750000000000e+03
1.308593750000000000e+03
1.882812500000000000e+03
1.273437500000000000e+03
1.308593750000000000e+03
1.113281250000000000e+03
8.828125000000000000e+02
6.796875000000000000e+02
1.984375000000000000e+03
6.679687500000000000e+02
1.335937500000000000e+03
6.679687500000000000e+02
6.914062500000000000e+02
2.242187500000000000e+03
7.578125000000000000e+02
7.500000000000000000e+02
7.539062500000000000e+02
7.148437500000000000e+02
7.031250000000000000e+02
6.796875000000000000e+02
1.332031250000000000e+03
1.304687500000000000e+03
6.757812500000000000e+02
6.757812500000000000e+02
6.953125000000000000e+02
7.109375000000000000e+02
7.265625000000000000e+02
7.226562500000000000e+02
7.187500000000000000e+02
7.226562500000000000e+02
7.031250000000000000e+02
6.796875000000000000e+02
1.312500000000000000e+03
1.281250000000000000e+03
1.242187500000000000e+03
1.281250000000000000e+03
1.203125000000000000e+03
2.157812500000000000e+04
1.027343750000000000e+03
1.335937500000000000e+03
7.656250000000000000e+02
1.488281250000000000e+03
1.378906250000000000e+03
9.492187500000000000e+02
1.753906250000000000e+03
7.968750000000000000e+02
8.007812500000000000e+02
1.296875000000000000e+03
6.992187500000000000e+02
6.992187500000000000e+02
6.875000000000000000e+02
1.335937500000000000e+03
6.757812500000000000e+02
6.757812500000000000e+02
6.953125000000000000e+02
6.992187500000000000e+02
1.167968750000000000e+03
9.648437500000000000e+02
7.031250000000000000e+02
6.953125000000000000e+02
6.875000000000000000e+02
6.953125000000000000e+02
6.914062500000000000e+02
9.414062500000000000e+02
9.257812500000000000e+02
7.109375000000000000e+02
7.539062500000000000e+02
1.328125000000000000e+03
7.031250000000000000e+02
7.304687500000000000e+02
7.382812500000000000e+02
7.421875000000000000e+02
7.109375000000000000e+02
1.394531250000000000e+03
6.875000000000000000e+02
6.875000000000000000e+02
6.718750000000000000e+02
6.875000000000000000e+02
6.835937500000000000e+02
6.875000000000000000e+02
6.953125000000000000e+02
6.835937500000000000e+02
1.300781250000000000e+03
9.375000000000000000e+02
1.085937500000000000e+03
6.796875000000000000e+02
7.148437500000000000e+02
7.734375000000000000e+02
7.890625000000000000e+02
7.734375000000000000e+02
7.968750000000000000e+02
7.539062500000000000e+02
7.460937500000000000e+02
7.070312500000000000e+02
6.953125000000000000e+02
1.328125000000000000e+03
1.125000000000000000e+03
7.812500000000000000e+02
1.300781250000000000e+03
1.375000000000000000e+03
7.421875000000000000e+02
7.500000000000000000e+02
7.812500000000000000e+02
8.007812500000000000e+02
7.851562500000000000e+02
7.851562500000000000e+02
7.695312500000000000e+02
7.695312500000000000e+02
7.460937500000000000e+02
7.500000000000000000e+02
7.343750000000000000e+02
7.187500000000000000e+02
1.371093750000000000e+03
8.886718750000000000e+03
1.070312500000000000e+03
1.035156250000000000e+03
1.265625000000000000e+03
1.265625000000000000e+03
7.695312500000000000e+02
1.167968750000000000e+03
6.679687500000000000e+02
6.914062500000000000e+02
7.031250000000000000e+02
6.992187500000000000e+02
7.031250000000000000e+02
7.148437500000000000e+02
7.031250000000000000e+02
6.953125000000000000e+02
6.875000000000000000e+02
7.031250000000000000e+02
6.914062500000000000e+02
6.875000000000000000e+02
6.835937500000000000e+02
6.796875000000000000e+02
6.679687500000000000e+02
6.835937500000000000e+02
6.679687500000000000e+02
1.382812500000000000e+03
1.375000000000000000e+03
6.914062500000000000e+02
6.914062500000000000e+02
1.378906250000000000e+03
6.875000000000000000e+02
6.796875000000000000e+02
6.835937500000000000e+02
6.914062500000000000e+02
1.378906250000000000e+03
1.332031250000000000e+03
9.453125000000000000e+02
1.140625000000000000e+03
1.175781250000000000e+03
6.679687500000000000e+02
6.835937500000000000e+02
1.421875000000000000e+03
7.187500000000000000e+02
7.343750000000000000e+02
7.539062500000000000e+02
7.304687500000000000e+02
7.304687500000000000e+02
6.992187500000000000e+02
6.953125000000000000e+02
2.000000000000000000e+03
1.316406250000000000e+03
1.996093750000000000e+03
1.371093750000000000e+03
1.394531250000000000e+03
1.382812500000000000e+03
1.109375000000000000e+03
9.492187500000000000e+02
1.488281250000000000e+03
1.347656250000000000e+03
1.167968750000000000e+03
8.320312500000000000e+02
1.164062500000000000e+03
1.351562500000000000e+03
6.796875000000000000e+02
6.835937500000000000e+02
1.406250000000000000e+03
6.992187500000000000e+02
1.210937500000000000e+03
7.656250000000000000e+02
1.296875000000000000e+03
1.328125000000000000e+03
6.875000000000000000e+02
6.953125000000000000e+02
6.914062500000000000e+02
6.992187500000000000e+02
7.070312500000000000e+02
6.914062500000000000e+02
6.953125000000000000e+02
6.875000000000000000e+02
6.718750000000000000e+02
1.382812500000000000e+03
1.460937500000000000e+03
7.070312500000000000e+02
1.187500000000000000e+03
1.191406250000000000e+03
1.082031250000000000e+03
7.890625000000000000e+02
2.164062500000000000e+03
8.515625000000000000e+02
8.945312500000000000e+02
7.382812500000000000e+02
5.488281250000000000e+03
6.945312500000000000e+03
7.070312500000000000e+02
7.031250000000000000e+02
6.953125000000000000e+02
8.828125000000000000e+02
1.093750000000000000e+03
1.320312500000000000e+03
6.679687500000000000e+02
6.679687500000000000e+02
6.718750000000000000e+02
1.324218750000000000e+03
1.914062500000000000e+03
1.278242187500000000e+05
1.230468750000000000e+03
1.906250000000000000e+03
1.332031250000000000e+03
7.031250000000000000e+02
7.343750000000000000e+02
7.500000000000000000e+02
7.343750000000000000e+02
7.656250000000000000e+02
7.460937500000000000e+02
7.500000000000000000e+02
7.187500000000000000e+02
7.148437500000000000e+02
7.031250000000000000e+02
6.835937500000000000e+02
1.097656250000000000e+03
9.335937500000000000e+02
8.671875000000000000e+02
6.992187500000000000e+02
1.109375000000000000e+03
8.476562500000000000e+02
7.890625000000000000e+02
1.253906250000000000e+03
8.085937500000000000e+02
7.929687500000000000e+02
7.343750000000000000e+02
1.449218750000000000e+03
8.632812500000000000e+02
9.921875000000000000e+02
8.164062500000000000e+02
7.812500000000000000e+02
1.261718750000000000e+03
6.992187500000000000e+02
6.757812500000000000e+02
1.210937500000000000e+03
1.031250000000000000e+03
7.382812500000000000e+02
1.062500000000000000e+03
1.156250000000000000e+03
9.179687500000000000e+02
7.148437500000000000e+02
7.148437500000000000e+02
8.515625000000000000e+02
1.265625000000000000e+03
6.992187500000000000e+02
7.812500000000000000e+02
6.796875000000000000e+02
6.679687500000000000e+02
8.593750000000000000e+02
1.199218750000000000e+03
9.335937500000000000e+02
1.210937500000000000e+03
6.953125000000000000e+02
6.875000000000000000e+02
1.097656250000000000e+03
7.968750000000000000e+02
1.320312500000000000e+03
7.656250000000000000e+02
7.929687500000000000e+02
8.046875000000000000e+02
6.914062500000000000e+02
6.796875000000000000e+02
7.812500000000000000e+02
2.015625000000000000e+03
6.757812500000000000e+02
7.929687500000000000e+02
8.398437500000000000e+02
1.437500000000000000e+03
8.046875000000000000e+02
1.648437500000000000e+03
7.343750000000000000e+02
1.019531250000000000e+03
1.050781250000000000e+03
7.734375000000000000e+02
