8.984375000000000000e+02
1.031250000000000000e+03
6.835937500000000000e+02
7.187500000000000000e+02
7.812500000000000000e+02
7.187500000000000000e+02
6.679687500000000000e+02
6.796875000000000000e+02
6.679687500000000000e+02
6.992187500000000000e+02
6.835937500000000000e+02
7.031250000000000000e+02
6.835937500000000000e+02
6.835937500000000000e+02
6.796875000000000000e+02
6.835937500000000000e+02
7.187500000000000000e+02
7.343750000000000000e+02
6.953125000000000000e+02
8.007812500000000000e+02
7.539062500000000000e+02
7.265625000000000000e+02
8.007812500000000000e+02
1.351562500000000000e+03
9.335937500000000000e+02
6.835937500000000000e+02
7.500000000000000000e+02
6.992187500000000000e+02
6.835937500000000000e+02
1.000000000000000000e+03
9.179687500000000000e+02
8.359375000000000000e+02
7.617187500000000000e+02
7.500000000000000000e+02
7.187500000000000000e+02
1.265625000000000000e+03
7.031250000000000000e+02
6.835937500000000000e+02
7.148437500000000000e+02
7.812500000000000000e+02
6.875000000000000000e+02
1.382812500000000000e+03
8.164062500000000000e+02
7.656250000000000000e+02
6.679687500000000000e+02
7.968750000000000000e+02
7.500000000000000000e+02
7.187500000000000000e+02
7.382812500000000000e+02
7.343750000000000000e+02
7.304687500000000000e+02
7.656250000000000000e+02
7.539062500000000000e+02
7.656250000000000000e+02
7.617187500000000000e+02
7.734375000000000000e+02
9.296875000000000000e+02
7.382812500000000000e+02
6.953125000000000000e+02
7.343750000000000000e+02
8.671875000000000000e+02
7.500000000000000000e+02
9.843750000000000000e+02
8.007812500000000000e+02
7.343750000000000000e+02
6.679687500000000000e+02
6.835937500000000000e+02
1.285156250000000000e+03
9.804687500000000000e+02
1.035156250000000000e+03
1.230468750000000000e+03
1.300781250000000000e+03
1.136718750000000000e+03
6.835937500000000000e+02
1.101562500000000000e+03
8.476562500000000000e+02
9.218750000000000000e+02
6.796875000000000000e+02
8.320312500000000000e+02
6.835937500000000000e+02
7.148437500000000000e+02
7.695312500000000000e+02
8.476562500000000000e+02
8.007812500000000000e+02
7.656250000000000000e+02
7.851562500000000000e+02
7.812500000000000000e+02
7.656250000000000000e+02
7.890625000000000000e+02
9.296875000000000000e+02
7.031250000000000000e+02
8.125000000000000000e+02
8.164062500000000000e+02
8.046875000000000000e+02
7.968750000000000000e+02
7.812500000000000000e+02
7.890625000000000000e+02
8.125000000000000000e+02
1.214843750000000000e+03
1.066406250000000000e+03
8.046875000000000000e+02
7.968750000000000000e+02
1.382812500000000000e+03
8.828125000000000000e+02
7.343750000000000000e+02
7.500000000000000000e+02
7.187500000000000000e+02
1.480468750000000000e+03
7.539062500000000000e+02
7.617187500000000000e+02
7.187500000000000000e+02
1.515625000000000000e+03
7.656250000000000000e+02
7.500000000000000000e+02
7.500000000000000000e+02
7.500000000000000000e+02
1.468750000000000000e+03
6.835937500000000000e+02
7.851562500000000000e+02
1.347656250000000000e+03
1.101562500000000000e+03
1.132812500000000000e+03
9.023437500000000000e+02
8.320312500000000000e+02
8.710937500000000000e+02
7.617187500000000000e+02
7.695312500000000000e+02
7.851562500000000000e+02
7.500000000000000000e+02
7.773437500000000000e+02
8.046875000000000000e+02
7.460937500000000000e+02
7.656250000000000000e+02
7.421875000000000000e+02
7.304687500000000000e+02
7.929687500000000000e+02
8.085937500000000000e+02
7.773437500000000000e+02
8.359375000000000000e+02
8.007812500000000000e+02
8.789062500000000000e+02
7.343750000000000000e+02
7.851562500000000000e+02
7.460937500000000000e+02
7.851562500000000000e+02
7.148437500000000000e+02
7.343750000000000000e+02
7.304687500000000000e+02
7.187500000000000000e+02
6.992187500000000000e+02
8.007812500000000000e+02
6.875000000000000000e+02
7.500000000000000000e+02
7.812500000000000000e+02
8.320312500000000000e+02
7.031250000000000000e+02
7.617187500000000000e+02
1.191406250000000000e+03
7.812500000000000000e+02
9.882812500000000000e+02
1.140625000000000000e+03
8.398437500000000000e+02
7.109375000000000000e+02
7.304687500000000000e+02
7.578125000000000000e+02
1.156250000000000000e+03
1.007812500000000000e+03
7.539062500000000000e+02
7.460937500000000000e+02
7.226562500000000000e+02
7.382812500000000000e+02
6.718750000000000000e+02
6.992187500000000000e+02
7.578125000000000000e+02
7.851562500000000000e+02
7.695312500000000000e+02
7.812500000000000000e+02
8.398437500000000000e+02
7.851562500000000000e+02
7.851562500000000000e+02
8.320312500000000000e+02
7.929687500000000000e+02
8.476562500000000000e+02
7.929687500000000000e+02
8.242187500000000000e+02
8.203125000000000000e+02
8.320312500000000000e+02
7.851562500000000000e+02
8.164062500000000000e+02
8.007812500000000000e+02
8.046875000000000000e+02
7.695312500000000000e+02
8.164062500000000000e+02
8.164062500000000000e+02
7.890625000000000000e+02
7.460937500000000000e+02
7.656250000000000000e+02
7.773437500000000000e+02
7.656250000000000000e+02
7.539062500000000000e+02
7.695312500000000000e+02
7.773437500000000000e+02
2.480468750000000000e+03
8.320312500000000000e+02
8.359375000000000000e+02
7.500000000000000000e+02
7.773437500000000000e+02
7.460937500000000000e+02
7.695312500000000000e+02
7.539062500000000000e+02
7.578125000000000000e+02
7.929687500000000000e+02
8.085937500000000000e+02
8.046875000000000000e+02
8.164062500000000000e+02
8.515625000000000000e+02
8.554687500000000000e+02
8.671875000000000000e+02
8.046875000000000000e+02
7.460937500000000000e+02
7.500000000000000000e+02
7.578125000000000000e+02
8.007812500000000000e+02
8.164062500000000000e+02
8.164062500000000000e+02
8.320312500000000000e+02
8.164062500000000000e+02
7.968750000000000000e+02
7.539062500000000000e+02
7.500000000000000000e+02
7.617187500000000000e+02
8.007812500000000000e+02
7.890625000000000000e+02
8.359375000000000000e+02
8.515625000000000000e+02
8.476562500000000000e+02
8.476562500000000000e+02
8.359375000000000000e+02
8.007812500000000000e+02
8.281250000000000000e+02
8.085937500000000000e+02
8.125000000000000000e+02
8.476562500000000000e+02
8.281250000000000000e+02
7.968750000000000000e+02
8.164062500000000000e+02
8.164062500000000000e+02
7.968750000000000000e+02
7.539062500000000000e+02
7.382812500000000000e+02
7.656250000000000000e+02
8.242187500000000000e+02
8.515625000000000000e+02
8.164062500000000000e+02
8.515625000000000000e+02
8.359375000000000000e+02
8.476562500000000000e+02
8.203125000000000000e+02
7.929687500000000000e+02
8.046875000000000000e+02
7.968750000000000000e+02
7.773437500000000000e+02
7.851562500000000000e+02
7.968750000000000000e+02
8.281250000000000000e+02
8.632812500000000000e+02
8.359375000000000000e+02
8.203125000000000000e+02
8.359375000000000000e+02
8.125000000000000000e+02
8.164062500000000000e+02
8.203125000000000000e+02
8.281250000000000000e+02
7.929687500000000000e+02
7.929687500000000000e+02
7.929687500000000000e+02
8.164062500000000000e+02
8.085937500000000000e+02
8.164062500000000000e+02
8.515625000000000000e+02
8.671875000000000000e+02
8.359375000000000000e+02
8.476562500000000000e+02
8.554687500000000000e+02
8.515625000000000000e+02
8.085937500000000000e+02
7.890625000000000000e+02
8.164062500000000000e+02
8.281250000000000000e+02
8.007812500000000000e+02
7.851562500000000000e+02
8.515625000000000000e+02
8.046875000000000000e+02
7.929687500000000000e+02
8.203125000000000000e+02
7.968750000000000000e+02
7.929687500000000000e+02
8.476562500000000000e+02
8.632812500000000000e+02
8.320312500000000000e+02
8.359375000000000000e+02
8.007812500000000000e+02
7.460937500000000000e+02
7.187500000000000000e+02
7.343750000000000000e+02
7.539062500000000000e+02
7.851562500000000000e+02
8.007812500000000000e+02
7.812500000000000000e+02
8.085937500000000000e+02
8.085937500000000000e+02
8.007812500000000000e+02
8.085937500000000000e+02
8.242187500000000000e+02
8.437500000000000000e+02
8.593750000000000000e+02
8.671875000000000000e+02
8.671875000000000000e+02
1.062500000000000000e+03
7.656250000000000000e+02
7.343750000000000000e+02
8.203125000000000000e+02
8.437500000000000000e+02
8.437500000000000000e+02
8.476562500000000000e+02
8.593750000000000000e+02
8.281250000000000000e+02
8.359375000000000000e+02
8.359375000000000000e+02
8.164062500000000000e+02
7.968750000000000000e+02
7.968750000000000000e+02
1.593750000000000000e+03
8.281250000000000000e+02
6.914062500000000000e+02
7.617187500000000000e+02
9.140625000000000000e+02
9.257812500000000000e+02
9.218750000000000000e+02
9.062500000000000000e+02
8.593750000000000000e+02
8.515625000000000000e+02
8.203125000000000000e+02
8.203125000000000000e+02
8.007812500000000000e+02
8.125000000000000000e+02
8.046875000000000000e+02
1.437500000000000000e+03
9.531250000000000000e+02
7.656250000000000000e+02
7.968750000000000000e+02
8.359375000000000000e+02
8.320312500000000000e+02
1.085937500000000000e+03
1.386718750000000000e+03
7.890625000000000000e+02
7.578125000000000000e+02
7.773437500000000000e+02
7.656250000000000000e+02
7.734375000000000000e+02
7.929687500000000000e+02
8.007812500000000000e+02
7.539062500000000000e+02
7.421875000000000000e+02
7.460937500000000000e+02
7.460937500000000000e+02
7.578125000000000000e+02
7.695312500000000000e+02
7.539062500000000000e+02
7.890625000000000000e+02
7.812500000000000000e+02
8.007812500000000000e+02
8.046875000000000000e+02
7.890625000000000000e+02
7.812500000000000000e+02
7.539062500000000000e+02
7.500000000000000000e+02
7.109375000000000000e+02
7.265625000000000000e+02
7.070312500000000000e+02
7.695312500000000000e+02
6.875000000000000000e+02
7.343750000000000000e+02
7.304687500000000000e+02
7.382812500000000000e+02
7.226562500000000000e+02
7.460937500000000000e+02
7.460937500000000000e+02
7.656250000000000000e+02
7.578125000000000000e+02
7.382812500000000000e+02
7.773437500000000000e+02
7.695312500000000000e+02
7.421875000000000000e+02
7.539062500000000000e+02
7.851562500000000000e+02
7.812500000000000000e+02
7.695312500000000000e+02
7.656250000000000000e+02
7.929687500000000000e+02
7.617187500000000000e+02
7.500000000000000000e+02
7.578125000000000000e+02
7.773437500000000000e+02
7.890625000000000000e+02
7.539062500000000000e+02
7.656250000000000000e+02
8.007812500000000000e+02
7.890625000000000000e+02
7.343750000000000000e+02
6.757812500000000000e+02
7.656250000000000000e+02
6.796875000000000000e+02
7.109375000000000000e+02
7.109375000000000000e+02
7.578125000000000000e+02
7.539062500000000000e+02
7.304687500000000000e+02
7.070312500000000000e+02
1.246093750000000000e+03
8.007812500000000000e+02
6.757812500000000000e+02
1.019531250000000000e+03
1.039062500000000000e+03
7.539062500000000000e+02
6.796875000000000000e+02
7.226562500000000000e+02
7.773437500000000000e+02
1.230468750000000000e+03
1.382812500000000000e+03
9.882812500000000000e+02
1.066406250000000000e+03
7.304687500000000000e+02
8.046875000000000000e+02
7.421875000000000000e+02
1.574218750000000000e+03
9.960937500000000000e+02
1.308593750000000000e+03
7.500000000000000000e+02
1.261718750000000000e+03
1.335937500000000000e+03
1.203125000000000000e+03
1.210937500000000000e+03
1.386718750000000000e+03
7.929687500000000000e+02
9.335937500000000000e+02
8.242187500000000000e+02
1.046875000000000000e+03
7.343750000000000000e+02
1.187500000000000000e+03
7.734375000000000000e+02
7.812500000000000000e+02
7.812500000000000000e+02
7.734375000000000000e+02
7.890625000000000000e+02
1.292968750000000000e+03
1.203125000000000000e+03
1.281250000000000000e+03
7.031250000000000000e+02
8.828125000000000000e+02
1.332031250000000000e+03
1.050781250000000000e+03
9.570312500000000000e+02
7.031250000000000000e+02
7.148437500000000000e+02
7.109375000000000000e+02
1.339843750000000000e+03
1.183593750000000000e+03
9.218750000000000000e+02
1.164062500000000000e+03
1.242187500000000000e+03
6.953125000000000000e+02
1.296875000000000000e+03
6.875000000000000000e+02
7.031250000000000000e+02
1.117187500000000000e+03
1.417968750000000000e+03
1.027343750000000000e+03
1.371093750000000000e+03
8.359375000000000000e+02
7.382812500000000000e+02
7.773437500000000000e+02
1.050781250000000000e+03
1.898437500000000000e+03
1.046875000000000000e+03
8.046875000000000000e+02
7.812500000000000000e+02
7.656250000000000000e+02
8.046875000000000000e+02
7.812500000000000000e+02
8.476562500000000000e+02
1.597656250000000000e+03
1.320312500000000000e+03
8.125000000000000000e+02
7.851562500000000000e+02
7.812500000000000000e+02
7.812500000000000000e+02
7.187500000000000000e+02
7.695312500000000000e+02
7.578125000000000000e+02
7.578125000000000000e+02
7.578125000000000000e+02
7.617187500000000000e+02
8.007812500000000000e+02
1.226562500000000000e+03
7.617187500000000000e+02
8.007812500000000000e+02
1.175781250000000000e+03
8.007812500000000000e+02
7.773437500000000000e+02
7.890625000000000000e+02
7.539062500000000000e+02
8.007812500000000000e+02
9.921875000000000000e+02
7.773437500000000000e+02
8.281250000000000000e+02
1.347656250000000000e+03
7.382812500000000000e+02
6.875000000000000000e+02
7.031250000000000000e+02
7.070312500000000000e+02
6.796875000000000000e+02
7.304687500000000000e+02
7.851562500000000000e+02
8.320312500000000000e+02
7.695312500000000000e+02
1.671875000000000000e+03
8.203125000000000000e+02
8.125000000000000000e+02
8.398437500000000000e+02
1.023437500000000000e+03
1.253906250000000000e+03
7.851562500000000000e+02
1.605468750000000000e+03
2.582031250000000000e+03
8.632812500000000000e+02
8.593750000000000000e+02
7.500000000000000000e+02
7.578125000000000000e+02
7.851562500000000000e+02
8.164062500000000000e+02
8.710937500000000000e+02
8.906250000000000000e+02
9.023437500000000000e+02
8.476562500000000000e+02
8.242187500000000000e+02
8.242187500000000000e+02
1.609375000000000000e+03
1.644531250000000000e+03
7.929687500000000000e+02
8.007812500000000000e+02
7.929687500000000000e+02
8.164062500000000000e+02
7.617187500000000000e+02
7.773437500000000000e+02
8.125000000000000000e+02
7.929687500000000000e+02
8.164062500000000000e+02
7.773437500000000000e+02
8.359375000000000000e+02
7.421875000000000000e+02
7.656250000000000000e+02
6.914062500000000000e+02
7.812500000000000000e+02
1.425781250000000000e+03
7.226562500000000000e+02
1.410156250000000000e+03
7.070312500000000000e+02
7.187500000000000000e+02
1.050781250000000000e+03
1.050781250000000000e+03
7.421875000000000000e+02
7.187500000000000000e+02
7.187500000000000000e+02
7.460937500000000000e+02
1.359375000000000000e+03
8.476562500000000000e+02
7.851562500000000000e+02
7.617187500000000000e+02
2.355468750000000000e+03
4.433593750000000000e+03
1.125000000000000000e+03
1.136718750000000000e+03
1.179687500000000000e+03
2.214843750000000000e+03
1.441406250000000000e+03
