1.410156250000000000e+03
6.875000000000000000e+02
7.109375000000000000e+02
1.179687500000000000e+03
2.128906250000000000e+03
7.773437500000000000e+02
6.757812500000000000e+02
6.875000000000000000e+02
7.187500000000000000e+02
6.992187500000000000e+02
7.539062500000000000e+02
7.773437500000000000e+02
7.695312500000000000e+02
7.304687500000000000e+02
7.460937500000000000e+02
7.343750000000000000e+02
7.304687500000000000e+02
9.335937500000000000e+02
7.812500000000000000e+02
1.191406250000000000e+03
7.382812500000000000e+02
6.757812500000000000e+02
6.953125000000000000e+02
1.398437500000000000e+03
7.148437500000000000e+02
7.226562500000000000e+02
2.535156250000000000e+03
1.015625000000000000e+03
1.511718750000000000e+03
4.628906250000000000e+03
1.312500000000000000e+03
6.835937500000000000e+02
6.992187500000000000e+02
1.421875000000000000e+03
1.457031250000000000e+03
7.304687500000000000e+02
7.500000000000000000e+02
1.144531250000000000e+03
7.187500000000000000e+02
8.320312500000000000e+02
1.117187500000000000e+03
7.617187500000000000e+02
7.343750000000000000e+02
7.500000000000000000e+02
7.382812500000000000e+02
7.421875000000000000e+02
1.167968750000000000e+03
1.015625000000000000e+03
1.183593750000000000e+03
8.320312500000000000e+02
1.117187500000000000e+03
7.656250000000000000e+02
1.246093750000000000e+03
1.054687500000000000e+03
6.953125000000000000e+02
8.203125000000000000e+02
1.046875000000000000e+03
7.812500000000000000e+02
7.656250000000000000e+02
8.320312500000000000e+02
8.984375000000000000e+02
1.437500000000000000e+03
8.007812500000000000e+02
7.460937500000000000e+02
7.265625000000000000e+02
8.671875000000000000e+02
1.316406250000000000e+03
2.230468750000000000e+03
7.148437500000000000e+02
7.812500000000000000e+02
7.500000000000000000e+02
7.343750000000000000e+02
6.835937500000000000e+02
7.812500000000000000e+02
7.500000000000000000e+02
1.152343750000000000e+03
1.011718750000000000e+03
7.968750000000000000e+02
7.070312500000000000e+02
8.007812500000000000e+02
9.765625000000000000e+02
1.285156250000000000e+03
7.851562500000000000e+02
7.382812500000000000e+02
7.304687500000000000e+02
7.265625000000000000e+02
7.695312500000000000e+02
7.617187500000000000e+02
7.812500000000000000e+02
7.656250000000000000e+02
7.460937500000000000e+02
7.539062500000000000e+02
7.304687500000000000e+02
7.265625000000000000e+02
7.148437500000000000e+02
7.617187500000000000e+02
7.656250000000000000e+02
1.218750000000000000e+03
1.019531250000000000e+03
7.812500000000000000e+02
7.656250000000000000e+02
8.476562500000000000e+02
8.554687500000000000e+02
7.812500000000000000e+02
8.437500000000000000e+02
8.007812500000000000e+02
7.851562500000000000e+02
7.695312500000000000e+02
7.460937500000000000e+02
9.648437500000000000e+02
1.234375000000000000e+03
1.347656250000000000e+03
1.199218750000000000e+03
8.164062500000000000e+02
8.007812500000000000e+02
8.125000000000000000e+02
7.539062500000000000e+02
8.007812500000000000e+02
7.851562500000000000e+02
7.812500000000000000e+02
1.277343750000000000e+03
1.199218750000000000e+03
1.199218750000000000e+03
6.679687500000000000e+02
9.335937500000000000e+02
8.632812500000000000e+02
1.117187500000000000e+03
1.269531250000000000e+03
7.773437500000000000e+02
7.695312500000000000e+02
9.296875000000000000e+02
7.656250000000000000e+02
1.066406250000000000e+03
1.218750000000000000e+03
9.570312500000000000e+02
6.757812500000000000e+02
1.277343750000000000e+03
9.375000000000000000e+02
7.851562500000000000e+02
1.093750000000000000e+03
7.812500000000000000e+02
8.164062500000000000e+02
1.335937500000000000e+03
8.476562500000000000e+02
1.011718750000000000e+03
8.398437500000000000e+02
8.398437500000000000e+02
8.125000000000000000e+02
8.359375000000000000e+02
8.242187500000000000e+02
8.515625000000000000e+02
8.476562500000000000e+02
8.242187500000000000e+02
7.851562500000000000e+02
8.046875000000000000e+02
8.085937500000000000e+02
1.093750000000000000e+03
1.246093750000000000e+03
8.828125000000000000e+02
6.992187500000000000e+02
7.500000000000000000e+02
7.539062500000000000e+02
1.515625000000000000e+03
8.085937500000000000e+02
8.437500000000000000e+02
8.359375000000000000e+02
8.515625000000000000e+02
8.671875000000000000e+02
8.320312500000000000e+02
8.476562500000000000e+02
8.046875000000000000e+02
8.125000000000000000e+02
8.046875000000000000e+02
8.515625000000000000e+02
1.324218750000000000e+03
1.199218750000000000e+03
9.023437500000000000e+02
9.023437500000000000e+02
9.335937500000000000e+02
9.296875000000000000e+02
8.984375000000000000e+02
8.359375000000000000e+02
1.031250000000000000e+03
7.109375000000000000e+02
8.671875000000000000e+02
8.515625000000000000e+02
8.164062500000000000e+02
8.710937500000000000e+02
8.828125000000000000e+02
9.140625000000000000e+02
9.140625000000000000e+02
8.476562500000000000e+02
8.671875000000000000e+02
8.476562500000000000e+02
8.789062500000000000e+02
8.164062500000000000e+02
8.750000000000000000e+02
8.593750000000000000e+02
8.007812500000000000e+02
8.984375000000000000e+02
8.945312500000000000e+02
8.828125000000000000e+02
8.554687500000000000e+02
7.968750000000000000e+02
8.476562500000000000e+02
7.851562500000000000e+02
8.164062500000000000e+02
7.812500000000000000e+02
8.437500000000000000e+02
8.671875000000000000e+02
8.867187500000000000e+02
8.007812500000000000e+02
8.281250000000000000e+02
8.085937500000000000e+02
7.460937500000000000e+02
8.085937500000000000e+02
8.203125000000000000e+02
8.593750000000000000e+02
8.437500000000000000e+02
1.050781250000000000e+03
1.429687500000000000e+03
8.046875000000000000e+02
8.164062500000000000e+02
8.281250000000000000e+02
7.695312500000000000e+02
7.812500000000000000e+02
8.476562500000000000e+02
8.515625000000000000e+02
8.945312500000000000e+02
9.023437500000000000e+02
8.984375000000000000e+02
9.023437500000000000e+02
8.476562500000000000e+02
8.164062500000000000e+02
8.515625000000000000e+02
8.398437500000000000e+02
9.062500000000000000e+02
9.140625000000000000e+02
9.179687500000000000e+02
8.828125000000000000e+02
8.671875000000000000e+02
8.554687500000000000e+02
8.515625000000000000e+02
8.320312500000000000e+02
8.242187500000000000e+02
8.671875000000000000e+02
8.671875000000000000e+02
8.984375000000000000e+02
9.179687500000000000e+02
8.476562500000000000e+02
8.671875000000000000e+02
8.398437500000000000e+02
8.828125000000000000e+02
8.203125000000000000e+02
8.984375000000000000e+02
9.570312500000000000e+02
6.835937500000000000e+02
7.695312500000000000e+02
8.281250000000000000e+02
8.164062500000000000e+02
7.890625000000000000e+02
8.125000000000000000e+02
8.007812500000000000e+02
8.320312500000000000e+02
8.554687500000000000e+02
8.945312500000000000e+02
9.257812500000000000e+02
9.062500000000000000e+02
8.984375000000000000e+02
8.515625000000000000e+02
8.671875000000000000e+02
8.359375000000000000e+02
8.476562500000000000e+02
8.046875000000000000e+02
8.085937500000000000e+02
8.359375000000000000e+02
8.164062500000000000e+02
8.203125000000000000e+02
8.789062500000000000e+02
8.593750000000000000e+02
1.195312500000000000e+03
1.496093750000000000e+03
9.960937500000000000e+02
1.171875000000000000e+03
7.187500000000000000e+02
1.347656250000000000e+03
6.718750000000000000e+02
7.851562500000000000e+02
1.417968750000000000e+03
1.320312500000000000e+03
6.835937500000000000e+02
1.371093750000000000e+03
1.175781250000000000e+03
1.089843750000000000e+03
6.992187500000000000e+02
6.914062500000000000e+02
1.097656250000000000e+03
1.285156250000000000e+03
1.210937500000000000e+03
8.164062500000000000e+02
8.476562500000000000e+02
8.554687500000000000e+02
8.164062500000000000e+02
1.031250000000000000e+03
6.992187500000000000e+02
8.125000000000000000e+02
8.398437500000000000e+02
8.125000000000000000e+02
8.007812500000000000e+02
7.968750000000000000e+02
9.140625000000000000e+02
1.355468750000000000e+03
7.421875000000000000e+02
7.539062500000000000e+02
8.125000000000000000e+02
7.734375000000000000e+02
8.320312500000000000e+02
8.203125000000000000e+02
7.695312500000000000e+02
1.042968750000000000e+03
1.054687500000000000e+03
6.679687500000000000e+02
6.679687500000000000e+02
7.226562500000000000e+02
6.875000000000000000e+02
8.007812500000000000e+02
8.281250000000000000e+02
8.007812500000000000e+02
8.164062500000000000e+02
7.968750000000000000e+02
7.578125000000000000e+02
7.695312500000000000e+02
8.164062500000000000e+02
7.812500000000000000e+02
8.164062500000000000e+02
1.562500000000000000e+03
7.617187500000000000e+02
7.695312500000000000e+02
7.382812500000000000e+02
7.734375000000000000e+02
7.539062500000000000e+02
7.773437500000000000e+02
7.695312500000000000e+02
7.812500000000000000e+02
7.851562500000000000e+02
7.656250000000000000e+02
7.929687500000000000e+02
7.890625000000000000e+02
7.968750000000000000e+02
8.164062500000000000e+02
8.164062500000000000e+02
8.203125000000000000e+02
8.125000000000000000e+02
1.121093750000000000e+03
1.355468750000000000e+03
8.203125000000000000e+02
8.242187500000000000e+02
7.929687500000000000e+02
8.281250000000000000e+02
1.054687500000000000e+03
1.246093750000000000e+03
1.476562500000000000e+03
1.031250000000000000e+03
8.281250000000000000e+02
6.835937500000000000e+02
6.796875000000000000e+02
6.953125000000000000e+02
1.464843750000000000e+03
7.890625000000000000e+02
8.320312500000000000e+02
8.242187500000000000e+02
8.007812500000000000e+02
8.007812500000000000e+02
8.359375000000000000e+02
7.695312500000000000e+02
1.507812500000000000e+03
7.382812500000000000e+02
7.382812500000000000e+02
7.070312500000000000e+02
7.070312500000000000e+02
7.304687500000000000e+02
7.343750000000000000e+02
7.617187500000000000e+02
7.968750000000000000e+02
8.164062500000000000e+02
7.695312500000000000e+02
8.359375000000000000e+02
8.281250000000000000e+02
8.359375000000000000e+02
7.929687500000000000e+02
8.476562500000000000e+02
8.359375000000000000e+02
8.085937500000000000e+02
8.046875000000000000e+02
8.359375000000000000e+02
7.890625000000000000e+02
7.812500000000000000e+02
7.695312500000000000e+02
7.968750000000000000e+02
8.007812500000000000e+02
7.929687500000000000e+02
8.359375000000000000e+02
7.148437500000000000e+02
1.000000000000000000e+03
7.695312500000000000e+02
7.929687500000000000e+02
7.695312500000000000e+02
8.125000000000000000e+02
6.835937500000000000e+02
7.500000000000000000e+02
7.656250000000000000e+02
1.300781250000000000e+03
8.789062500000000000e+02
7.382812500000000000e+02
9.648437500000000000e+02
1.550781250000000000e+03
1.679687500000000000e+03
9.375000000000000000e+02
7.148437500000000000e+02
7.304687500000000000e+02
6.679687500000000000e+02
7.265625000000000000e+02
8.437500000000000000e+02
7.617187500000000000e+02
9.375000000000000000e+02
