8.046875000000000000e+02
7.773437500000000000e+02
1.285156250000000000e+03
1.261718750000000000e+03
8.046875000000000000e+02
1.320312500000000000e+03
2.078125000000000000e+03
8.281250000000000000e+02
8.476562500000000000e+02
8.320312500000000000e+02
8.476562500000000000e+02
8.203125000000000000e+02
8.554687500000000000e+02
8.476562500000000000e+02
7.851562500000000000e+02
8.320312500000000000e+02
7.734375000000000000e+02
6.914062500000000000e+02
9.726562500000000000e+02
1.035156250000000000e+03
1.109375000000000000e+03
9.023437500000000000e+02
7.031250000000000000e+02
1.039062500000000000e+03
1.269531250000000000e+03
9.492187500000000000e+02
7.539062500000000000e+02
7.773437500000000000e+02
7.500000000000000000e+02
7.187500000000000000e+02
7.617187500000000000e+02
7.187500000000000000e+02
7.460937500000000000e+02
7.382812500000000000e+02
7.578125000000000000e+02
9.179687500000000000e+02
6.953125000000000000e+02
1.304687500000000000e+03
7.187500000000000000e+02
7.382812500000000000e+02
7.734375000000000000e+02
7.578125000000000000e+02
7.539062500000000000e+02
8.164062500000000000e+02
6.992187500000000000e+02
8.515625000000000000e+02
9.414062500000000000e+02
1.183593750000000000e+03
1.269531250000000000e+03
1.550781250000000000e+03
7.460937500000000000e+02
7.539062500000000000e+02
7.734375000000000000e+02
7.773437500000000000e+02
1.000000000000000000e+03
8.242187500000000000e+02
1.464843750000000000e+03
8.593750000000000000e+02
8.515625000000000000e+02
7.382812500000000000e+02
1.031250000000000000e+03
1.058593750000000000e+03
7.617187500000000000e+02
7.539062500000000000e+02
1.812500000000000000e+03
1.035156250000000000e+03
1.011718750000000000e+03
1.167968750000000000e+03
7.148437500000000000e+02
9.843750000000000000e+02
8.828125000000000000e+02
7.187500000000000000e+02
7.851562500000000000e+02
7.265625000000000000e+02
1.066406250000000000e+03
1.382812500000000000e+03
7.226562500000000000e+02
6.953125000000000000e+02
8.281250000000000000e+02
1.007812500000000000e+03
1.144531250000000000e+03
8.125000000000000000e+02
1.164062500000000000e+03
9.140625000000000000e+02
1.246093750000000000e+03
8.632812500000000000e+02
8.710937500000000000e+02
8.906250000000000000e+02
9.453125000000000000e+02
7.265625000000000000e+02
8.984375000000000000e+02
8.085937500000000000e+02
7.578125000000000000e+02
7.617187500000000000e+02
7.617187500000000000e+02
1.488281250000000000e+03
8.945312500000000000e+02
1.675781250000000000e+03
9.140625000000000000e+02
4.332031250000000000e+03
6.875000000000000000e+02
9.179687500000000000e+02
8.593750000000000000e+02
9.882812500000000000e+02
8.242187500000000000e+02
1.132812500000000000e+03
7.890625000000000000e+02
7.890625000000000000e+02
9.375000000000000000e+02
6.757812500000000000e+02
1.164062500000000000e+03
1.011718750000000000e+03
7.343750000000000000e+02
7.382812500000000000e+02
9.492187500000000000e+02
6.757812500000000000e+02
9.648437500000000000e+02
9.257812500000000000e+02
8.125000000000000000e+02
6.757812500000000000e+02
7.265625000000000000e+02
9.335937500000000000e+02
1.242187500000000000e+03
1.070312500000000000e+03
1.000000000000000000e+03
9.960937500000000000e+02
1.210937500000000000e+03
8.046875000000000000e+02
8.437500000000000000e+02
7.812500000000000000e+02
7.578125000000000000e+02
1.535156250000000000e+03
1.472656250000000000e+03
7.578125000000000000e+02
1.222656250000000000e+03
9.765625000000000000e+02
7.187500000000000000e+02
1.046875000000000000e+03
1.148437500000000000e+03
1.195312500000000000e+03
8.007812500000000000e+02
7.812500000000000000e+02
8.046875000000000000e+02
6.796875000000000000e+02
9.414062500000000000e+02
1.300781250000000000e+03
1.289062500000000000e+03
1.226562500000000000e+03
9.648437500000000000e+02
1.394531250000000000e+03
7.070312500000000000e+02
1.070312500000000000e+03
8.164062500000000000e+02
1.101562500000000000e+03
7.773437500000000000e+02
9.687500000000000000e+02
8.789062500000000000e+02
8.593750000000000000e+02
1.167968750000000000e+03
8.945312500000000000e+02
8.007812500000000000e+02
7.148437500000000000e+02
9.023437500000000000e+02
7.070312500000000000e+02
1.207031250000000000e+03
1.195312500000000000e+03
1.351562500000000000e+03
1.324218750000000000e+03
1.023437500000000000e+03
7.773437500000000000e+02
8.085937500000000000e+02
6.757812500000000000e+02
1.316406250000000000e+03
8.281250000000000000e+02
8.164062500000000000e+02
8.906250000000000000e+02
7.304687500000000000e+02
6.718750000000000000e+02
1.039062500000000000e+03
9.726562500000000000e+02
8.671875000000000000e+02
7.265625000000000000e+02
9.726562500000000000e+02
7.851562500000000000e+02
4.308593750000000000e+03
1.117187500000000000e+03
6.757812500000000000e+02
6.953125000000000000e+02
7.929687500000000000e+02
7.734375000000000000e+02
1.300781250000000000e+04
8.554687500000000000e+02
1.179687500000000000e+03
1.003906250000000000e+03
6.953125000000000000e+02
7.500000000000000000e+02
8.593750000000000000e+02
6.875000000000000000e+02
9.960937500000000000e+02
6.875000000000000000e+02
7.265625000000000000e+02
9.960937500000000000e+02
7.421875000000000000e+02
7.226562500000000000e+02
8.203125000000000000e+02
8.828125000000000000e+02
7.539062500000000000e+02
1.062500000000000000e+03
9.335937500000000000e+02
8.007812500000000000e+02
1.093750000000000000e+03
1.097656250000000000e+03
8.125000000000000000e+02
1.203125000000000000e+03
1.179687500000000000e+03
7.382812500000000000e+02
1.218750000000000000e+03
1.113281250000000000e+03
1.308593750000000000e+03
7.070312500000000000e+02
7.929687500000000000e+02
1.136718750000000000e+03
7.226562500000000000e+02
7.148437500000000000e+02
7.148437500000000000e+02
1.144531250000000000e+03
1.003906250000000000e+03
9.414062500000000000e+02
8.945312500000000000e+02
8.046875000000000000e+02
9.882812500000000000e+02
9.726562500000000000e+02
1.285156250000000000e+03
1.160156250000000000e+03
8.398437500000000000e+02
8.242187500000000000e+02
7.460937500000000000e+02
7.460937500000000000e+02
7.578125000000000000e+02
8.750000000000000000e+02
1.179687500000000000e+03
1.414062500000000000e+03
9.882812500000000000e+02
1.253906250000000000e+03
9.570312500000000000e+02
8.320312500000000000e+02
7.734375000000000000e+02
9.218750000000000000e+02
7.968750000000000000e+02
9.609375000000000000e+02
7.109375000000000000e+02
7.460937500000000000e+02
1.171875000000000000e+03
1.316406250000000000e+03
1.097656250000000000e+03
1.007812500000000000e+03
8.320312500000000000e+02
6.914062500000000000e+02
1.273437500000000000e+03
8.789062500000000000e+02
9.726562500000000000e+02
8.710937500000000000e+02
1.027343750000000000e+03
7.851562500000000000e+02
8.945312500000000000e+02
8.710937500000000000e+02
1.238281250000000000e+03
1.281250000000000000e+03
7.968750000000000000e+02
7.539062500000000000e+02
6.679687500000000000e+02
8.984375000000000000e+02
9.726562500000000000e+02
1.105468750000000000e+03
9.726562500000000000e+02
8.164062500000000000e+02
1.125000000000000000e+03
6.953125000000000000e+02
7.031250000000000000e+02
6.679687500000000000e+02
8.710937500000000000e+02
8.046875000000000000e+02
8.281250000000000000e+02
8.125000000000000000e+02
8.242187500000000000e+02
1.312500000000000000e+03
1.054687500000000000e+03
8.125000000000000000e+02
7.617187500000000000e+02
9.179687500000000000e+02
6.992187500000000000e+02
8.164062500000000000e+02
6.796875000000000000e+02
8.789062500000000000e+02
8.320312500000000000e+02
7.695312500000000000e+02
1.261718750000000000e+03
9.492187500000000000e+02
7.617187500000000000e+02
7.304687500000000000e+02
1.578125000000000000e+03
7.890625000000000000e+02
9.726562500000000000e+02
1.304687500000000000e+03
7.578125000000000000e+02
8.476562500000000000e+02
6.757812500000000000e+02
6.679687500000000000e+02
6.992187500000000000e+02
8.945312500000000000e+02
6.875000000000000000e+02
9.101562500000000000e+02
2.683593750000000000e+03
1.089843750000000000e+03
9.335937500000000000e+02
9.648437500000000000e+02
6.835937500000000000e+02
6.718750000000000000e+02
1.926953125000000000e+04
6.992187500000000000e+02
1.351562500000000000e+03
6.914062500000000000e+02
4.890625000000000000e+04
2.738281250000000000e+03
2.401562500000000000e+04
1.062109375000000000e+04
7.812500000000000000e+02
2.210937500000000000e+03
7.382812500000000000e+02
3.722656250000000000e+03
1.773437500000000000e+03
7.773437500000000000e+02
8.437500000000000000e+02
1.089843750000000000e+03
7.500000000000000000e+02
1.136718750000000000e+03
1.226562500000000000e+03
8.125000000000000000e+02
8.476562500000000000e+02
6.835937500000000000e+02
9.335937500000000000e+02
6.992187500000000000e+02
9.375000000000000000e+02
6.992187500000000000e+02
8.164062500000000000e+02
1.207031250000000000e+03
8.085937500000000000e+02
8.476562500000000000e+02
2.000000000000000000e+03
6.914062500000000000e+02
7.343750000000000000e+02
1.179687500000000000e+03
6.914062500000000000e+02
1.199218750000000000e+03
6.757812500000000000e+02
9.609375000000000000e+02
8.554687500000000000e+02
9.492187500000000000e+02
6.757812500000000000e+02
7.109375000000000000e+02
6.718750000000000000e+02
3.136718750000000000e+03
5.814453125000000000e+04
7.265625000000000000e+02
8.359375000000000000e+02
1.085937500000000000e+03
7.851562500000000000e+02
7.773437500000000000e+02
7.421875000000000000e+02
2.832031250000000000e+03
8.085937500000000000e+02
1.156250000000000000e+03
1.191406250000000000e+03
7.421875000000000000e+02
7.539062500000000000e+02
7.812500000000000000e+02
1.007812500000000000e+03
6.679687500000000000e+02
7.343750000000000000e+02
9.023437500000000000e+02
1.253906250000000000e+03
1.085937500000000000e+03
7.070312500000000000e+02
9.726562500000000000e+02
9.218750000000000000e+02
9.140625000000000000e+02
8.007812500000000000e+02
1.382812500000000000e+03
1.937500000000000000e+03
1.714843750000000000e+03
7.695312500000000000e+02
9.062500000000000000e+02
8.398437500000000000e+02
8.203125000000000000e+02
1.261718750000000000e+03
7.148437500000000000e+02
1.054687500000000000e+03
7.890625000000000000e+02
6.953125000000000000e+02
1.046875000000000000e+03
1.285156250000000000e+03
9.960937500000000000e+02
9.960937500000000000e+02
7.851562500000000000e+02
6.718750000000000000e+02
7.148437500000000000e+02
9.296875000000000000e+02
8.828125000000000000e+02
7.734375000000000000e+02
7.968750000000000000e+02
8.359375000000000000e+02
8.125000000000000000e+02
7.929687500000000000e+02
7.070312500000000000e+02
6.835937500000000000e+02
6.835937500000000000e+02
1.156250000000000000e+03
9.218750000000000000e+02
7.500000000000000000e+02
1.421875000000000000e+03
1.316406250000000000e+03
1.070312500000000000e+03
8.242187500000000000e+02
9.570312500000000000e+02
1.046875000000000000e+03
6.796875000000000000e+02
9.882812500000000000e+02
1.621093750000000000e+03
8.984375000000000000e+02
1.195312500000000000e+03
1.125000000000000000e+03
7.773437500000000000e+02
1.566406250000000000e+03
8.945312500000000000e+02
8.437500000000000000e+02
7.773437500000000000e+02
7.773437500000000000e+02
7.304687500000000000e+02
1.097656250000000000e+03
7.578125000000000000e+02
8.945312500000000000e+02
6.875000000000000000e+02
7.421875000000000000e+02
1.097656250000000000e+03
8.906250000000000000e+02
7.656250000000000000e+02
6.835937500000000000e+02
1.277343750000000000e+03
9.531250000000000000e+02
7.460937500000000000e+02
1.347656250000000000e+03
8.750000000000000000e+02
7.070312500000000000e+02
8.906250000000000000e+02
6.718750000000000000e+02
7.656250000000000000e+02
7.070312500000000000e+02
8.828125000000000000e+02
7.382812500000000000e+02
7.382812500000000000e+02
1.113281250000000000e+03
1.078125000000000000e+03
6.757812500000000000e+02
9.687500000000000000e+02
6.757812500000000000e+02
7.968750000000000000e+02
7.890625000000000000e+02
1.363281250000000000e+03
