7.421875000000000000e+02
7.421875000000000000e+02
8.750000000000000000e+02
1.253906250000000000e+03
1.179687500000000000e+03
8.320312500000000000e+02
6.914062500000000000e+02
1.390625000000000000e+03
6.835937500000000000e+02
8.281250000000000000e+02
1.855468750000000000e+03
1.023437500000000000e+03
1.179687500000000000e+03
9.687500000000000000e+02
2.785156250000000000e+03
1.472656250000000000e+03
7.343750000000000000e+02
7.187500000000000000e+02
7.109375000000000000e+02
1.410156250000000000e+03
7.070312500000000000e+02
6.835937500000000000e+02
2.074218750000000000e+03
2.609375000000000000e+03
7.187500000000000000e+02
1.097656250000000000e+03
1.191406250000000000e+03
1.667968750000000000e+03
1.007812500000000000e+03
1.203125000000000000e+03
1.703125000000000000e+03
7.148437500000000000e+02
6.992187500000000000e+02
6.914062500000000000e+02
6.796875000000000000e+02
6.718750000000000000e+02
6.679687500000000000e+02
1.312500000000000000e+03
1.312500000000000000e+03
1.328125000000000000e+03
6.835937500000000000e+02
6.914062500000000000e+02
1.378906250000000000e+03
2.128906250000000000e+03
7.070312500000000000e+02
7.109375000000000000e+02
1.390625000000000000e+03
6.914062500000000000e+02
6.796875000000000000e+02
6.718750000000000000e+02
6.679687500000000000e+02
1.335937500000000000e+03
6.718750000000000000e+02
6.757812500000000000e+02
6.914062500000000000e+02
1.234375000000000000e+03
8.203125000000000000e+02
1.582031250000000000e+03
1.875000000000000000e+03
6.835937500000000000e+02
1.355468750000000000e+03
6.835937500000000000e+02
6.992187500000000000e+02
6.914062500000000000e+02
1.414062500000000000e+03
7.265625000000000000e+02
7.226562500000000000e+02
7.304687500000000000e+02
7.343750000000000000e+02
7.226562500000000000e+02
7.265625000000000000e+02
7.265625000000000000e+02
7.148437500000000000e+02
7.109375000000000000e+02
1.414062500000000000e+03
6.992187500000000000e+02
6.992187500000000000e+02
7.031250000000000000e+02
7.148437500000000000e+02
7.148437500000000000e+02
7.304687500000000000e+02
9.296875000000000000e+02
1.273437500000000000e+03
7.460937500000000000e+02
7.460937500000000000e+02
7.382812500000000000e+02
7.421875000000000000e+02
1.156250000000000000e+03
1.015625000000000000e+03
1.445312500000000000e+03
7.148437500000000000e+02
7.187500000000000000e+02
7.265625000000000000e+02
7.382812500000000000e+02
7.382812500000000000e+02
7.460937500000000000e+02
1.519531250000000000e+03
7.500000000000000000e+02
7.656250000000000000e+02
7.617187500000000000e+02
7.265625000000000000e+02
7.343750000000000000e+02
7.265625000000000000e+02
7.109375000000000000e+02
7.109375000000000000e+02
7.226562500000000000e+02
1.312500000000000000e+03
7.734375000000000000e+02
8.242187500000000000e+02
1.554687500000000000e+03
2.269531250000000000e+03
1.515625000000000000e+03
1.507812500000000000e+03
1.187500000000000000e+03
8.164062500000000000e+02
9.960937500000000000e+02
1.210937500000000000e+03
7.617187500000000000e+02
7.617187500000000000e+02
7.187500000000000000e+02
1.753906250000000000e+03
7.265625000000000000e+02
1.539062500000000000e+03
8.164062500000000000e+02
1.593750000000000000e+03
2.386718750000000000e+03
2.347656250000000000e+03
7.695312500000000000e+02
4.058593750000000000e+03
7.851562500000000000e+02
8.164062500000000000e+02
2.492187500000000000e+03
7.773437500000000000e+02
3.257812500000000000e+03
8.085937500000000000e+02
8.359375000000000000e+02
8.554687500000000000e+02
8.554687500000000000e+02
8.750000000000000000e+02
8.398437500000000000e+02
8.476562500000000000e+02
1.691406250000000000e+03
7.890625000000000000e+02
1.656250000000000000e+03
8.125000000000000000e+02
7.890625000000000000e+02
7.968750000000000000e+02
3.398437500000000000e+03
8.437500000000000000e+02
1.707031250000000000e+03
8.320312500000000000e+02
8.359375000000000000e+02
8.359375000000000000e+02
1.707031250000000000e+03
8.906250000000000000e+02
9.140625000000000000e+02
1.675781250000000000e+03
8.632812500000000000e+02
8.320312500000000000e+02
8.515625000000000000e+02
8.515625000000000000e+02
8.320312500000000000e+02
8.281250000000000000e+02
8.320312500000000000e+02
4.441406250000000000e+03
8.164062500000000000e+02
8.046875000000000000e+02
8.164062500000000000e+02
8.164062500000000000e+02
7.929687500000000000e+02
8.242187500000000000e+02
8.476562500000000000e+02
1.734375000000000000e+03
8.867187500000000000e+02
8.789062500000000000e+02
8.867187500000000000e+02
8.164062500000000000e+02
7.890625000000000000e+02
1.593750000000000000e+03
8.437500000000000000e+02
1.734375000000000000e+03
8.554687500000000000e+02
2.558593750000000000e+03
8.046875000000000000e+02
7.890625000000000000e+02
8.046875000000000000e+02
8.085937500000000000e+02
7.929687500000000000e+02
8.203125000000000000e+02
8.398437500000000000e+02
8.476562500000000000e+02
8.281250000000000000e+02
8.281250000000000000e+02
1.667968750000000000e+03
8.320312500000000000e+02
8.281250000000000000e+02
8.007812500000000000e+02
8.085937500000000000e+02
8.203125000000000000e+02
8.515625000000000000e+02
8.281250000000000000e+02
8.632812500000000000e+02
8.710937500000000000e+02
8.828125000000000000e+02
8.359375000000000000e+02
8.359375000000000000e+02
8.437500000000000000e+02
8.398437500000000000e+02
7.929687500000000000e+02
7.773437500000000000e+02
7.773437500000000000e+02
7.851562500000000000e+02
8.281250000000000000e+02
8.515625000000000000e+02
8.906250000000000000e+02
8.359375000000000000e+02
8.320312500000000000e+02
8.359375000000000000e+02
8.437500000000000000e+02
8.554687500000000000e+02
8.437500000000000000e+02
8.437500000000000000e+02
8.437500000000000000e+02
8.203125000000000000e+02
8.085937500000000000e+02
7.929687500000000000e+02
7.773437500000000000e+02
7.773437500000000000e+02
7.851562500000000000e+02
8.085937500000000000e+02
8.085937500000000000e+02
7.773437500000000000e+02
7.929687500000000000e+02
8.125000000000000000e+02
8.085937500000000000e+02
8.007812500000000000e+02
8.320312500000000000e+02
8.281250000000000000e+02
8.046875000000000000e+02
8.164062500000000000e+02
8.007812500000000000e+02
8.125000000000000000e+02
8.242187500000000000e+02
8.046875000000000000e+02
8.203125000000000000e+02
8.242187500000000000e+02
8.242187500000000000e+02
7.851562500000000000e+02
7.617187500000000000e+02
7.695312500000000000e+02
7.734375000000000000e+02
7.500000000000000000e+02
7.382812500000000000e+02
7.421875000000000000e+02
1.464843750000000000e+03
7.031250000000000000e+02
6.953125000000000000e+02
6.718750000000000000e+02
1.351562500000000000e+03
6.875000000000000000e+02
1.402343750000000000e+03
7.031250000000000000e+02
7.070312500000000000e+02
7.226562500000000000e+02
7.304687500000000000e+02
7.421875000000000000e+02
7.343750000000000000e+02
7.382812500000000000e+02
7.539062500000000000e+02
7.578125000000000000e+02
7.539062500000000000e+02
2.234375000000000000e+03
7.343750000000000000e+02
7.500000000000000000e+02
7.500000000000000000e+02
7.500000000000000000e+02
7.382812500000000000e+02
2.195312500000000000e+03
7.109375000000000000e+02
1.414062500000000000e+03
6.953125000000000000e+02
6.992187500000000000e+02
6.953125000000000000e+02
6.914062500000000000e+02
6.914062500000000000e+02
6.953125000000000000e+02
7.070312500000000000e+02
7.070312500000000000e+02
6.992187500000000000e+02
1.414062500000000000e+03
7.070312500000000000e+02
7.109375000000000000e+02
7.148437500000000000e+02
1.402343750000000000e+03
6.953125000000000000e+02
6.835937500000000000e+02
8.320312500000000000e+02
1.218750000000000000e+03
1.355468750000000000e+03
6.757812500000000000e+02
6.875000000000000000e+02
8.398437500000000000e+02
1.949218750000000000e+03
1.863281250000000000e+03
7.031250000000000000e+02
7.421875000000000000e+02
7.773437500000000000e+02
6.796875000000000000e+02
6.835937500000000000e+02
6.953125000000000000e+02
7.031250000000000000e+02
6.835937500000000000e+02
1.406250000000000000e+03
7.031250000000000000e+02
2.949218750000000000e+03
7.343750000000000000e+02
7.304687500000000000e+02
2.191406250000000000e+03
7.382812500000000000e+02
7.421875000000000000e+02
7.617187500000000000e+02
1.554687500000000000e+03
1.839843750000000000e+03
1.496093750000000000e+03
7.226562500000000000e+02
7.460937500000000000e+02
9.492187500000000000e+02
7.539062500000000000e+02
1.617187500000000000e+03
2.378906250000000000e+03
3.914062500000000000e+03
1.554687500000000000e+03
7.890625000000000000e+02
7.148437500000000000e+02
6.914062500000000000e+02
2.445312500000000000e+03
1.144531250000000000e+03
6.796875000000000000e+02
1.097656250000000000e+03
2.023437500000000000e+03
7.851562500000000000e+02
2.519531250000000000e+03
8.359375000000000000e+02
8.515625000000000000e+02
8.164062500000000000e+02
1.617187500000000000e+03
8.515625000000000000e+02
8.359375000000000000e+02
8.632812500000000000e+02
8.515625000000000000e+02
8.359375000000000000e+02
8.437500000000000000e+02
1.675781250000000000e+03
8.203125000000000000e+02
1.687500000000000000e+03
8.359375000000000000e+02
2.562500000000000000e+03
8.398437500000000000e+02
8.437500000000000000e+02
8.593750000000000000e+02
8.437500000000000000e+02
8.710937500000000000e+02
8.828125000000000000e+02
8.437500000000000000e+02
1.707031250000000000e+03
8.476562500000000000e+02
8.320312500000000000e+02
1.703125000000000000e+03
8.359375000000000000e+02
8.437500000000000000e+02
8.476562500000000000e+02
8.242187500000000000e+02
1.687500000000000000e+03
7.929687500000000000e+02
7.695312500000000000e+02
2.425781250000000000e+03
8.125000000000000000e+02
1.695312500000000000e+03
2.578125000000000000e+03
8.554687500000000000e+02
8.554687500000000000e+02
8.398437500000000000e+02
2.519531250000000000e+03
1.441406250000000000e+03
1.117187500000000000e+03
1.253906250000000000e+03
9.531250000000000000e+02
7.460937500000000000e+02
1.113281250000000000e+03
9.921875000000000000e+02
9.062500000000000000e+02
8.632812500000000000e+02
1.113281250000000000e+03
8.242187500000000000e+02
1.386718750000000000e+03
1.386718750000000000e+03
8.359375000000000000e+02
1.992187500000000000e+03
7.656250000000000000e+02
7.617187500000000000e+02
7.539062500000000000e+02
7.382812500000000000e+02
7.343750000000000000e+02
7.109375000000000000e+02
6.992187500000000000e+02
6.953125000000000000e+02
6.914062500000000000e+02
6.992187500000000000e+02
7.031250000000000000e+02
7.187500000000000000e+02
7.265625000000000000e+02
7.460937500000000000e+02
7.539062500000000000e+02
7.695312500000000000e+02
7.890625000000000000e+02
7.812500000000000000e+02
7.929687500000000000e+02
7.890625000000000000e+02
7.812500000000000000e+02
7.773437500000000000e+02
7.734375000000000000e+02
7.656250000000000000e+02
7.578125000000000000e+02
7.500000000000000000e+02
7.265625000000000000e+02
1.441406250000000000e+03
7.031250000000000000e+02
7.031250000000000000e+02
6.953125000000000000e+02
6.953125000000000000e+02
6.875000000000000000e+02
7.031250000000000000e+02
6.992187500000000000e+02
6.953125000000000000e+02
6.953125000000000000e+02
7.070312500000000000e+02
1.398437500000000000e+03
7.070312500000000000e+02
1.414062500000000000e+03
7.031250000000000000e+02
7.031250000000000000e+02
7.031250000000000000e+02
6.953125000000000000e+02
2.113281250000000000e+03
7.070312500000000000e+02
2.128906250000000000e+03
1.429687500000000000e+03
1.414062500000000000e+03
6.992187500000000000e+02
1.394531250000000000e+03
6.875000000000000000e+02
6.875000000000000000e+02
6.835937500000000000e+02
1.363281250000000000e+03
6.835937500000000000e+02
3.449218750000000000e+03
6.992187500000000000e+02
7.070312500000000000e+02
6.992187500000000000e+02
6.953125000000000000e+02
6.992187500000000000e+02
1.378906250000000000e+03
1.367187500000000000e+03
6.757812500000000000e+02
6.718750000000000000e+02
6.757812500000000000e+02
2.015625000000000000e+03
1.363281250000000000e+03
6.835937500000000000e+02
1.367187500000000000e+03
6.875000000000000000e+02
2.070312500000000000e+03
6.875000000000000000e+02
6.875000000000000000e+02
6.757812500000000000e+02
