8.125000000000000000e+02
7.812500000000000000e+02
7.070312500000000000e+02
1.472656250000000000e+03
7.265625000000000000e+02
1.406250000000000000e+03
6.914062500000000000e+02
7.031250000000000000e+02
6.914062500000000000e+02
7.656250000000000000e+02
8.007812500000000000e+02
8.281250000000000000e+02
8.359375000000000000e+02
8.632812500000000000e+02
8.359375000000000000e+02
8.281250000000000000e+02
7.578125000000000000e+02
7.226562500000000000e+02
7.304687500000000000e+02
7.343750000000000000e+02
7.968750000000000000e+02
8.476562500000000000e+02
8.828125000000000000e+02
8.007812500000000000e+02
7.968750000000000000e+02
8.437500000000000000e+02
8.750000000000000000e+02
8.437500000000000000e+02
8.320312500000000000e+02
7.812500000000000000e+02
7.890625000000000000e+02
7.734375000000000000e+02
7.773437500000000000e+02
7.812500000000000000e+02
7.968750000000000000e+02
8.164062500000000000e+02
8.320312500000000000e+02
8.007812500000000000e+02
8.046875000000000000e+02
8.320312500000000000e+02
8.554687500000000000e+02
8.359375000000000000e+02
7.812500000000000000e+02
8.085937500000000000e+02
8.398437500000000000e+02
8.437500000000000000e+02
8.476562500000000000e+02
8.203125000000000000e+02
8.359375000000000000e+02
7.890625000000000000e+02
7.851562500000000000e+02
8.007812500000000000e+02
7.773437500000000000e+02
7.343750000000000000e+02
7.539062500000000000e+02
7.382812500000000000e+02
7.109375000000000000e+02
6.875000000000000000e+02
6.679687500000000000e+02
6.679687500000000000e+02
1.285156250000000000e+03
1.250000000000000000e+03
1.746093750000000000e+03
1.113281250000000000e+03
1.152343750000000000e+03
1.355468750000000000e+03
7.226562500000000000e+02
6.679687500000000000e+02
7.539062500000000000e+02
7.617187500000000000e+02
7.187500000000000000e+02
7.968750000000000000e+02
7.343750000000000000e+02
8.593750000000000000e+02
7.812500000000000000e+02
7.226562500000000000e+02
8.007812500000000000e+02
7.148437500000000000e+02
7.460937500000000000e+02
1.410156250000000000e+03
7.070312500000000000e+02
6.953125000000000000e+02
6.953125000000000000e+02
6.835937500000000000e+02
6.679687500000000000e+02
6.835937500000000000e+02
6.992187500000000000e+02
6.875000000000000000e+02
6.875000000000000000e+02
7.109375000000000000e+02
7.265625000000000000e+02
7.304687500000000000e+02
2.167968750000000000e+03
7.109375000000000000e+02
7.031250000000000000e+02
6.953125000000000000e+02
6.953125000000000000e+02
1.281250000000000000e+03
1.281250000000000000e+03
1.937500000000000000e+03
1.351562500000000000e+03
6.953125000000000000e+02
6.835937500000000000e+02
7.070312500000000000e+02
6.992187500000000000e+02
6.914062500000000000e+02
6.875000000000000000e+02
6.718750000000000000e+02
6.796875000000000000e+02
6.796875000000000000e+02
1.324218750000000000e+03
6.757812500000000000e+02
6.953125000000000000e+02
7.109375000000000000e+02
7.031250000000000000e+02
6.953125000000000000e+02
6.992187500000000000e+02
6.953125000000000000e+02
6.875000000000000000e+02
1.343750000000000000e+03
1.328125000000000000e+03
1.312500000000000000e+03
1.328125000000000000e+03
1.308593750000000000e+03
6.718750000000000000e+02
6.796875000000000000e+02
6.875000000000000000e+02
6.875000000000000000e+02
6.953125000000000000e+02
6.992187500000000000e+02
6.718750000000000000e+02
1.324218750000000000e+03
1.980468750000000000e+03
1.292968750000000000e+03
1.316406250000000000e+03
1.296875000000000000e+03
1.332031250000000000e+03
1.332031250000000000e+03
1.335937500000000000e+03
6.757812500000000000e+02
6.718750000000000000e+02
6.835937500000000000e+02
6.757812500000000000e+02
1.304687500000000000e+03
1.289062500000000000e+03
1.246093750000000000e+03
2.550781250000000000e+03
1.265625000000000000e+03
6.679687500000000000e+02
6.757812500000000000e+02
7.031250000000000000e+02
1.375000000000000000e+03
1.363281250000000000e+03
7.031250000000000000e+02
6.835937500000000000e+02
6.757812500000000000e+02
6.835937500000000000e+02
7.109375000000000000e+02
7.148437500000000000e+02
6.914062500000000000e+02
1.320312500000000000e+03
1.968750000000000000e+03
1.261718750000000000e+03
1.296875000000000000e+03
7.070312500000000000e+02
7.343750000000000000e+02
7.617187500000000000e+02
7.812500000000000000e+02
7.773437500000000000e+02
7.734375000000000000e+02
7.460937500000000000e+02
1.453125000000000000e+03
6.835937500000000000e+02
6.796875000000000000e+02
6.718750000000000000e+02
6.679687500000000000e+02
1.933593750000000000e+03
6.679687500000000000e+02
6.875000000000000000e+02
6.953125000000000000e+02
7.265625000000000000e+02
7.343750000000000000e+02
7.460937500000000000e+02
7.109375000000000000e+02
7.109375000000000000e+02
7.382812500000000000e+02
7.460937500000000000e+02
7.382812500000000000e+02
7.304687500000000000e+02
1.464843750000000000e+03
7.304687500000000000e+02
7.148437500000000000e+02
7.109375000000000000e+02
7.187500000000000000e+02
7.226562500000000000e+02
1.429687500000000000e+03
7.539062500000000000e+02
7.539062500000000000e+02
1.445312500000000000e+03
7.304687500000000000e+02
7.148437500000000000e+02
6.992187500000000000e+02
1.457031250000000000e+03
7.187500000000000000e+02
7.070312500000000000e+02
7.382812500000000000e+02
7.460937500000000000e+02
7.343750000000000000e+02
7.226562500000000000e+02
7.304687500000000000e+02
7.304687500000000000e+02
6.679687500000000000e+02
6.875000000000000000e+02
1.375000000000000000e+03
6.796875000000000000e+02
7.187500000000000000e+02
7.382812500000000000e+02
7.578125000000000000e+02
7.304687500000000000e+02
7.187500000000000000e+02
6.835937500000000000e+02
7.070312500000000000e+02
6.875000000000000000e+02
1.320312500000000000e+03
6.679687500000000000e+02
1.292968750000000000e+03
1.312500000000000000e+03
1.359375000000000000e+03
6.953125000000000000e+02
1.402343750000000000e+03
2.046875000000000000e+03
6.835937500000000000e+02
6.679687500000000000e+02
6.718750000000000000e+02
6.757812500000000000e+02
6.835937500000000000e+02
6.679687500000000000e+02
6.757812500000000000e+02
7.109375000000000000e+02
7.070312500000000000e+02
7.109375000000000000e+02
7.500000000000000000e+02
7.617187500000000000e+02
7.460937500000000000e+02
7.070312500000000000e+02
7.109375000000000000e+02
7.109375000000000000e+02
6.992187500000000000e+02
1.304687500000000000e+03
1.234375000000000000e+03
1.261718750000000000e+03
6.679687500000000000e+02
1.343750000000000000e+03
7.031250000000000000e+02
6.992187500000000000e+02
7.148437500000000000e+02
2.066406250000000000e+03
1.343750000000000000e+03
1.839843750000000000e+03
1.804687500000000000e+03
1.214843750000000000e+03
1.781250000000000000e+03
1.125000000000000000e+03
2.210937500000000000e+03
1.066406250000000000e+03
1.113281250000000000e+03
2.269531250000000000e+03
3.656250000000000000e+03
6.914062500000000000e+02
2.753906250000000000e+03
6.757812500000000000e+02
1.246093750000000000e+03
1.300781250000000000e+03
2.871093750000000000e+03
4.589843750000000000e+03
5.398437500000000000e+03
7.773437500000000000e+02
8.085937500000000000e+02
7.890625000000000000e+02
7.226562500000000000e+02
7.226562500000000000e+02
7.460937500000000000e+02
7.617187500000000000e+02
7.968750000000000000e+02
8.242187500000000000e+02
8.203125000000000000e+02
8.046875000000000000e+02
7.929687500000000000e+02
7.460937500000000000e+02
6.796875000000000000e+02
6.757812500000000000e+02
7.109375000000000000e+02
7.187500000000000000e+02
8.046875000000000000e+02
8.398437500000000000e+02
7.851562500000000000e+02
7.968750000000000000e+02
8.164062500000000000e+02
8.164062500000000000e+02
8.046875000000000000e+02
7.773437500000000000e+02
7.656250000000000000e+02
7.617187500000000000e+02
6.875000000000000000e+02
7.539062500000000000e+02
7.187500000000000000e+02
7.695312500000000000e+02
8.242187500000000000e+02
7.968750000000000000e+02
7.812500000000000000e+02
8.007812500000000000e+02
8.437500000000000000e+02
8.750000000000000000e+02
8.281250000000000000e+02
8.437500000000000000e+02
8.242187500000000000e+02
7.812500000000000000e+02
8.085937500000000000e+02
8.281250000000000000e+02
8.359375000000000000e+02
7.890625000000000000e+02
7.968750000000000000e+02
8.203125000000000000e+02
8.632812500000000000e+02
1.691406250000000000e+03
8.203125000000000000e+02
1.738281250000000000e+03
8.242187500000000000e+02
1.621093750000000000e+03
8.164062500000000000e+02
8.398437500000000000e+02
8.164062500000000000e+02
8.359375000000000000e+02
8.750000000000000000e+02
8.828125000000000000e+02
8.437500000000000000e+02
8.125000000000000000e+02
7.187500000000000000e+02
7.890625000000000000e+02
7.812500000000000000e+02
8.164062500000000000e+02
8.242187500000000000e+02
8.125000000000000000e+02
8.710937500000000000e+02
8.789062500000000000e+02
8.906250000000000000e+02
8.125000000000000000e+02
7.890625000000000000e+02
8.046875000000000000e+02
8.164062500000000000e+02
8.085937500000000000e+02
8.125000000000000000e+02
8.398437500000000000e+02
8.437500000000000000e+02
8.359375000000000000e+02
1.585937500000000000e+03
7.500000000000000000e+02
7.578125000000000000e+02
7.812500000000000000e+02
8.046875000000000000e+02
8.007812500000000000e+02
8.359375000000000000e+02
8.203125000000000000e+02
7.968750000000000000e+02
7.812500000000000000e+02
7.539062500000000000e+02
7.578125000000000000e+02
7.460937500000000000e+02
7.304687500000000000e+02
7.304687500000000000e+02
7.382812500000000000e+02
7.109375000000000000e+02
7.187500000000000000e+02
7.265625000000000000e+02
7.500000000000000000e+02
7.226562500000000000e+02
7.539062500000000000e+02
7.382812500000000000e+02
1.445312500000000000e+03
7.304687500000000000e+02
1.503906250000000000e+03
2.238281250000000000e+03
7.265625000000000000e+02
7.617187500000000000e+02
2.320312500000000000e+03
7.968750000000000000e+02
8.554687500000000000e+02
8.554687500000000000e+02
8.476562500000000000e+02
8.164062500000000000e+02
8.320312500000000000e+02
8.281250000000000000e+02
8.164062500000000000e+02
7.968750000000000000e+02
8.203125000000000000e+02
8.164062500000000000e+02
8.320312500000000000e+02
1.546875000000000000e+03
2.449218750000000000e+03
1.652343750000000000e+03
8.710937500000000000e+02
1.714843750000000000e+03
7.929687500000000000e+02
8.007812500000000000e+02
8.164062500000000000e+02
8.242187500000000000e+02
8.320312500000000000e+02
8.281250000000000000e+02
7.773437500000000000e+02
7.656250000000000000e+02
8.085937500000000000e+02
8.359375000000000000e+02
8.437500000000000000e+02
8.242187500000000000e+02
1.738281250000000000e+03
8.515625000000000000e+02
8.242187500000000000e+02
7.929687500000000000e+02
7.656250000000000000e+02
7.578125000000000000e+02
7.617187500000000000e+02
7.031250000000000000e+02
1.300781250000000000e+03
1.246093750000000000e+03
6.757812500000000000e+02
8.632812500000000000e+02
8.320312500000000000e+02
8.476562500000000000e+02
8.320312500000000000e+02
8.320312500000000000e+02
8.515625000000000000e+02
7.929687500000000000e+02
7.968750000000000000e+02
7.851562500000000000e+02
7.773437500000000000e+02
1.539062500000000000e+03
2.257812500000000000e+03
2.230468750000000000e+03
1.535156250000000000e+03
7.109375000000000000e+02
1.457031250000000000e+03
8.398437500000000000e+02
8.437500000000000000e+02
1.699218750000000000e+03
7.656250000000000000e+02
7.890625000000000000e+02
7.812500000000000000e+02
7.929687500000000000e+02
8.007812500000000000e+02
7.851562500000000000e+02
8.125000000000000000e+02
1.660156250000000000e+03
1.644531250000000000e+03
8.398437500000000000e+02
8.320312500000000000e+02
8.007812500000000000e+02
7.734375000000000000e+02
7.773437500000000000e+02
7.695312500000000000e+02
2.312500000000000000e+03
7.851562500000000000e+02
8.007812500000000000e+02
7.929687500000000000e+02
7.617187500000000000e+02
7.500000000000000000e+02
7.734375000000000000e+02
7.890625000000000000e+02
7.890625000000000000e+02
7.617187500000000000e+02
7.812500000000000000e+02
7.929687500000000000e+02
7.851562500000000000e+02
7.773437500000000000e+02
7.890625000000000000e+02
8.085937500000000000e+02
1.578125000000000000e+03
7.968750000000000000e+02
7.578125000000000000e+02
7.656250000000000000e+02
6.800781250000000000e+03
8.125000000000000000e+02
8.125000000000000000e+02
8.203125000000000000e+02
8.125000000000000000e+02
8.007812500000000000e+02
7.851562500000000000e+02
7.734375000000000000e+02
6.953125000000000000e+02
7.460937500000000000e+02
7.304687500000000000e+02
7.460937500000000000e+02
7.968750000000000000e+02
7.734375000000000000e+02
8.007812500000000000e+02
8.046875000000000000e+02
8.203125000000000000e+02
8.359375000000000000e+02
7.851562500000000000e+02
7.851562500000000000e+02
7.890625000000000000e+02
1.449218750000000000e+03
7.226562500000000000e+02
7.500000000000000000e+02
7.539062500000000000e+02
7.617187500000000000e+02
6.992187500000000000e+02
6.953125000000000000e+02
6.953125000000000000e+02
1.371093750000000000e+03
1.300781250000000000e+03
1.859375000000000000e+03
1.167968750000000000e+03
1.152343750000000000e+03
1.703125000000000000e+03
1.156250000000000000e+03
1.863281250000000000e+03
7.265625000000000000e+02
7.460937500000000000e+02
7.617187500000000000e+02
6.914062500000000000e+02
8.320312500000000000e+02
7.578125000000000000e+02
7.187500000000000000e+02
6.835937500000000000e+02
7.031250000000000000e+02
6.992187500000000000e+02
6.835937500000000000e+02
1.332031250000000000e+03
6.679687500000000000e+02
1.281250000000000000e+03
1.332031250000000000e+03
6.679687500000000000e+02
6.679687500000000000e+02
6.679687500000000000e+02
6.953125000000000000e+02
6.679687500000000000e+02
1.281250000000000000e+03
1.300781250000000000e+03
6.796875000000000000e+02
6.953125000000000000e+02
6.914062500000000000e+02
6.914062500000000000e+02
7.148437500000000000e+02
7.656250000000000000e+02
7.812500000000000000e+02
7.695312500000000000e+02
7.851562500000000000e+02
3.687500000000000000e+03
7.773437500000000000e+02
1.539062500000000000e+03
7.304687500000000000e+02
7.382812500000000000e+02
7.851562500000000000e+02
8.359375000000000000e+02
9.062500000000000000e+02
8.828125000000000000e+02
8.515625000000000000e+02
8.007812500000000000e+02
8.007812500000000000e+02
8.007812500000000000e+02
7.929687500000000000e+02
7.773437500000000000e+02
7.578125000000000000e+02
7.812500000000000000e+02
7.890625000000000000e+02
8.046875000000000000e+02
7.734375000000000000e+02
7.890625000000000000e+02
7.890625000000000000e+02
8.046875000000000000e+02
7.929687500000000000e+02
7.890625000000000000e+02
7.851562500000000000e+02
7.617187500000000000e+02
7.343750000000000000e+02
6.835937500000000000e+02
7.187500000000000000e+02
7.226562500000000000e+02
7.929687500000000000e+02
8.476562500000000000e+02
8.281250000000000000e+02
7.929687500000000000e+02
8.554687500000000000e+02
8.671875000000000000e+02
8.437500000000000000e+02
8.085937500000000000e+02
8.320312500000000000e+02
8.398437500000000000e+02
8.515625000000000000e+02
8.320312500000000000e+02
8.359375000000000000e+02
8.671875000000000000e+02
8.476562500000000000e+02
8.398437500000000000e+02
8.281250000000000000e+02
7.617187500000000000e+02
7.890625000000000000e+02
7.968750000000000000e+02
1.558593750000000000e+03
4.035156250000000000e+03
8.515625000000000000e+02
7.617187500000000000e+02
7.460937500000000000e+02
7.382812500000000000e+02
7.421875000000000000e+02
8.359375000000000000e+02
8.476562500000000000e+02
8.320312500000000000e+02
7.773437500000000000e+02
8.203125000000000000e+02
1.734375000000000000e+03
8.242187500000000000e+02
8.789062500000000000e+02
9.023437500000000000e+02
8.945312500000000000e+02
8.359375000000000000e+02
8.593750000000000000e+02
8.593750000000000000e+02
1.722656250000000000e+03
8.906250000000000000e+02
9.023437500000000000e+02
9.062500000000000000e+02
8.593750000000000000e+02
8.750000000000000000e+02
8.593750000000000000e+02
8.476562500000000000e+02
1.699218750000000000e+03
8.515625000000000000e+02
8.789062500000000000e+02
5.050781250000000000e+03
1.683593750000000000e+03
8.281250000000000000e+02
7.851562500000000000e+02
8.007812500000000000e+02
8.164062500000000000e+02
8.242187500000000000e+02
8.164062500000000000e+02
8.085937500000000000e+02
1.710937500000000000e+03
8.750000000000000000e+02
7.968750000000000000e+02
8.398437500000000000e+02
8.320312500000000000e+02
2.449218750000000000e+03
3.347656250000000000e+03
1.722656250000000000e+03
8.515625000000000000e+02
8.242187500000000000e+02
8.398437500000000000e+02
1.593750000000000000e+03
7.929687500000000000e+02
8.203125000000000000e+02
8.281250000000000000e+02
8.046875000000000000e+02
7.656250000000000000e+02
7.617187500000000000e+02
7.734375000000000000e+02
7.382812500000000000e+02
2.152343750000000000e+03
6.992187500000000000e+02
6.679687500000000000e+02
1.269531250000000000e+03
1.273437500000000000e+03
1.261718750000000000e+03
1.289062500000000000e+03
7.109375000000000000e+02
7.617187500000000000e+02
7.617187500000000000e+02
7.617187500000000000e+02
1.589843750000000000e+03
8.125000000000000000e+02
8.125000000000000000e+02
7.773437500000000000e+02
7.773437500000000000e+02
7.734375000000000000e+02
7.460937500000000000e+02
7.539062500000000000e+02
7.304687500000000000e+02
7.109375000000000000e+02
7.031250000000000000e+02
7.031250000000000000e+02
7.265625000000000000e+02
7.187500000000000000e+02
7.265625000000000000e+02
7.460937500000000000e+02
7.656250000000000000e+02
7.656250000000000000e+02
1.558593750000000000e+03
7.773437500000000000e+02
7.695312500000000000e+02
7.460937500000000000e+02
1.449218750000000000e+03
6.992187500000000000e+02
7.031250000000000000e+02
6.757812500000000000e+02
6.875000000000000000e+02
6.953125000000000000e+02
7.226562500000000000e+02
7.109375000000000000e+02
7.265625000000000000e+02
4.957031250000000000e+03
6.875000000000000000e+02
6.796875000000000000e+02
6.914062500000000000e+02
2.031250000000000000e+03
7.226562500000000000e+02
7.421875000000000000e+02
7.226562500000000000e+02
7.578125000000000000e+02
7.773437500000000000e+02
7.851562500000000000e+02
7.968750000000000000e+02
8.085937500000000000e+02
7.890625000000000000e+02
7.968750000000000000e+02
1.542968750000000000e+03
2.195312500000000000e+03
7.109375000000000000e+02
5.039062500000000000e+03
7.656250000000000000e+02
3.171875000000000000e+03
1.597656250000000000e+03
7.656250000000000000e+02
7.500000000000000000e+02
7.343750000000000000e+02
1.429687500000000000e+03
6.914062500000000000e+02
6.757812500000000000e+02
6.679687500000000000e+02
1.941406250000000000e+03
1.273437500000000000e+03
1.289062500000000000e+03
7.187500000000000000e+02
7.343750000000000000e+02
6.953125000000000000e+02
7.226562500000000000e+02
7.500000000000000000e+02
7.421875000000000000e+02
7.500000000000000000e+02
7.031250000000000000e+02
6.718750000000000000e+02
6.757812500000000000e+02
6.914062500000000000e+02
6.875000000000000000e+02
7.148437500000000000e+02
7.070312500000000000e+02
7.109375000000000000e+02
6.953125000000000000e+02
6.953125000000000000e+02
7.070312500000000000e+02
7.226562500000000000e+02
7.382812500000000000e+02
7.187500000000000000e+02
7.265625000000000000e+02
7.187500000000000000e+02
7.265625000000000000e+02
7.265625000000000000e+02
7.265625000000000000e+02
7.187500000000000000e+02
1.332031250000000000e+03
6.757812500000000000e+02
6.679687500000000000e+02
6.757812500000000000e+02
6.718750000000000000e+02
6.914062500000000000e+02
7.031250000000000000e+02
7.148437500000000000e+02
7.031250000000000000e+02
1.515625000000000000e+03
7.578125000000000000e+02
7.304687500000000000e+02
7.617187500000000000e+02
7.421875000000000000e+02
7.500000000000000000e+02
7.187500000000000000e+02
7.304687500000000000e+02
7.421875000000000000e+02
7.226562500000000000e+02
7.187500000000000000e+02
7.109375000000000000e+02
6.757812500000000000e+02
6.953125000000000000e+02
7.109375000000000000e+02
7.187500000000000000e+02
6.835937500000000000e+02
6.757812500000000000e+02
7.031250000000000000e+02
1.371093750000000000e+03
1.410156250000000000e+03
6.875000000000000000e+02
6.679687500000000000e+02
6.914062500000000000e+02
1.332031250000000000e+03
8.593750000000000000e+02
