3.058593750000000000e+03
8.984375000000000000e+02
7.734375000000000000e+02
7.343750000000000000e+02
7.500000000000000000e+02
7.500000000000000000e+02
7.656250000000000000e+02
1.535156250000000000e+03
8.007812500000000000e+02
7.734375000000000000e+02
1.601562500000000000e+03
7.968750000000000000e+02
7.851562500000000000e+02
7.695312500000000000e+02
8.085937500000000000e+02
2.347656250000000000e+03
8.085937500000000000e+02
8.281250000000000000e+02
8.242187500000000000e+02
8.320312500000000000e+02
7.968750000000000000e+02
8.085937500000000000e+02
8.203125000000000000e+02
8.359375000000000000e+02
8.320312500000000000e+02
8.164062500000000000e+02
7.812500000000000000e+02
8.046875000000000000e+02
8.125000000000000000e+02
8.359375000000000000e+02
8.203125000000000000e+02
7.890625000000000000e+02
7.773437500000000000e+02
7.890625000000000000e+02
7.656250000000000000e+02
7.890625000000000000e+02
7.812500000000000000e+02
7.890625000000000000e+02
8.085937500000000000e+02
7.968750000000000000e+02
7.851562500000000000e+02
7.500000000000000000e+02
7.304687500000000000e+02
7.382812500000000000e+02
7.304687500000000000e+02
7.226562500000000000e+02
7.187500000000000000e+02
7.148437500000000000e+02
7.148437500000000000e+02
7.226562500000000000e+02
7.382812500000000000e+02
7.343750000000000000e+02
7.578125000000000000e+02
7.695312500000000000e+02
7.773437500000000000e+02
7.656250000000000000e+02
7.773437500000000000e+02
8.125000000000000000e+02
8.203125000000000000e+02
8.281250000000000000e+02
8.242187500000000000e+02
7.734375000000000000e+02
7.734375000000000000e+02
7.851562500000000000e+02
8.046875000000000000e+02
8.320312500000000000e+02
8.203125000000000000e+02
8.164062500000000000e+02
8.320312500000000000e+02
8.242187500000000000e+02
8.242187500000000000e+02
8.242187500000000000e+02
8.281250000000000000e+02
8.554687500000000000e+02
8.320312500000000000e+02
8.554687500000000000e+02
8.632812500000000000e+02
8.789062500000000000e+02
9.101562500000000000e+02
9.179687500000000000e+02
9.218750000000000000e+02
8.906250000000000000e+02
8.945312500000000000e+02
9.296875000000000000e+02
9.414062500000000000e+02
9.375000000000000000e+02
9.414062500000000000e+02
9.375000000000000000e+02
9.257812500000000000e+02
8.906250000000000000e+02
9.023437500000000000e+02
9.218750000000000000e+02
8.906250000000000000e+02
9.101562500000000000e+02
8.789062500000000000e+02
9.062500000000000000e+02
9.257812500000000000e+02
9.140625000000000000e+02
9.335937500000000000e+02
9.335937500000000000e+02
9.375000000000000000e+02
9.375000000000000000e+02
9.335937500000000000e+02
9.257812500000000000e+02
8.750000000000000000e+02
8.593750000000000000e+02
8.789062500000000000e+02
9.218750000000000000e+02
8.828125000000000000e+02
9.101562500000000000e+02
9.609375000000000000e+02
9.687500000000000000e+02
9.882812500000000000e+02
9.960937500000000000e+02
9.882812500000000000e+02
9.414062500000000000e+02
9.335937500000000000e+02
9.375000000000000000e+02
9.414062500000000000e+02
9.531250000000000000e+02
9.375000000000000000e+02
9.335937500000000000e+02
9.335937500000000000e+02
1.050781250000000000e+03
8.164062500000000000e+02
9.335937500000000000e+02
9.648437500000000000e+02
9.609375000000000000e+02
9.570312500000000000e+02
9.453125000000000000e+02
9.062500000000000000e+02
9.023437500000000000e+02
9.257812500000000000e+02
9.570312500000000000e+02
9.843750000000000000e+02
9.843750000000000000e+02
1.000000000000000000e+03
9.765625000000000000e+02
9.453125000000000000e+02
9.687500000000000000e+02
9.296875000000000000e+02
8.906250000000000000e+02
8.398437500000000000e+02
8.242187500000000000e+02
8.085937500000000000e+02
8.007812500000000000e+02
7.929687500000000000e+02
7.929687500000000000e+02
1.500000000000000000e+03
7.578125000000000000e+02
7.265625000000000000e+02
7.304687500000000000e+02
7.265625000000000000e+02
1.425781250000000000e+03
7.343750000000000000e+02
7.773437500000000000e+02
8.203125000000000000e+02
7.812500000000000000e+02
7.851562500000000000e+02
8.515625000000000000e+02
1.644531250000000000e+03
8.437500000000000000e+02
8.203125000000000000e+02
8.281250000000000000e+02
8.750000000000000000e+02
7.929687500000000000e+02
8.203125000000000000e+02
1.695312500000000000e+03
8.828125000000000000e+02
8.710937500000000000e+02
8.164062500000000000e+02
8.320312500000000000e+02
8.476562500000000000e+02
8.789062500000000000e+02
8.867187500000000000e+02
8.828125000000000000e+02
8.789062500000000000e+02
8.554687500000000000e+02
1.789062500000000000e+03
9.296875000000000000e+02
9.140625000000000000e+02
8.867187500000000000e+02
8.203125000000000000e+02
8.437500000000000000e+02
8.398437500000000000e+02
8.476562500000000000e+02
8.359375000000000000e+02
1.742187500000000000e+03
1.753906250000000000e+03
8.476562500000000000e+02
8.398437500000000000e+02
2.703125000000000000e+03
1.028125000000000000e+04
9.726562500000000000e+02
9.765625000000000000e+02
9.570312500000000000e+02
9.453125000000000000e+02
1.859375000000000000e+03
9.179687500000000000e+02
9.453125000000000000e+02
9.570312500000000000e+02
9.375000000000000000e+02
9.531250000000000000e+02
9.453125000000000000e+02
9.492187500000000000e+02
9.296875000000000000e+02
9.101562500000000000e+02
8.906250000000000000e+02
8.750000000000000000e+02
8.164062500000000000e+02
8.085937500000000000e+02
7.890625000000000000e+02
7.734375000000000000e+02
7.890625000000000000e+02
7.851562500000000000e+02
7.578125000000000000e+02
7.695312500000000000e+02
7.929687500000000000e+02
8.320312500000000000e+02
8.437500000000000000e+02
8.046875000000000000e+02
8.281250000000000000e+02
8.515625000000000000e+02
8.359375000000000000e+02
8.398437500000000000e+02
8.867187500000000000e+02
9.062500000000000000e+02
9.140625000000000000e+02
8.671875000000000000e+02
8.671875000000000000e+02
2.531250000000000000e+03
7.851562500000000000e+02
7.812500000000000000e+02
2.476562500000000000e+03
8.242187500000000000e+02
8.398437500000000000e+02
8.593750000000000000e+02
1.750000000000000000e+03
8.789062500000000000e+02
8.789062500000000000e+02
8.281250000000000000e+02
8.046875000000000000e+02
7.695312500000000000e+02
2.339843750000000000e+03
7.539062500000000000e+02
7.773437500000000000e+02
1.613281250000000000e+03
8.046875000000000000e+02
7.695312500000000000e+02
8.046875000000000000e+02
8.710937500000000000e+02
8.125000000000000000e+02
8.515625000000000000e+02
8.750000000000000000e+02
8.828125000000000000e+02
3.476562500000000000e+03
8.750000000000000000e+02
1.812500000000000000e+03
9.218750000000000000e+02
2.682031250000000000e+04
8.476562500000000000e+02
8.281250000000000000e+02
8.281250000000000000e+02
8.046875000000000000e+02
6.644531250000000000e+03
7.851562500000000000e+02
1.066406250000000000e+03
1.792968750000000000e+03
8.554687500000000000e+02
8.320312500000000000e+02
8.710937500000000000e+02
1.859375000000000000e+03
6.750000000000000000e+03
9.687500000000000000e+02
1.898437500000000000e+03
1.933593750000000000e+03
2.921875000000000000e+03
9.765625000000000000e+02
9.960937500000000000e+02
9.687500000000000000e+02
9.218750000000000000e+02
9.335937500000000000e+02
9.023437500000000000e+02
3.679687500000000000e+03
8.750000000000000000e+02
8.632812500000000000e+02
8.320312500000000000e+02
2.429687500000000000e+03
1.628906250000000000e+03
1.417968750000000000e+03
8.007812500000000000e+02
8.398437500000000000e+02
8.398437500000000000e+02
8.359375000000000000e+02
2.246093750000000000e+03
7.734375000000000000e+02
6.953125000000000000e+02
2.320312500000000000e+03
7.734375000000000000e+02
7.460937500000000000e+02
7.148437500000000000e+02
2.089843750000000000e+03
7.265625000000000000e+02
7.539062500000000000e+02
3.679687500000000000e+03
2.980468750000000000e+03
1.496093750000000000e+03
7.734375000000000000e+02
4.652343750000000000e+03
1.507812500000000000e+03
7.304687500000000000e+02
4.714843750000000000e+03
8.671875000000000000e+02
1.652343750000000000e+03
7.812500000000000000e+02
7.773437500000000000e+02
8.046875000000000000e+02
7.773437500000000000e+02
7.851562500000000000e+02
8.242187500000000000e+02
8.320312500000000000e+02
1.675781250000000000e+03
1.664062500000000000e+03
8.515625000000000000e+02
8.593750000000000000e+02
8.476562500000000000e+02
8.203125000000000000e+02
1.570312500000000000e+03
7.500000000000000000e+02
7.343750000000000000e+02
7.070312500000000000e+02
7.695312500000000000e+02
7.343750000000000000e+02
1.582031250000000000e+03
8.359375000000000000e+02
8.554687500000000000e+02
8.125000000000000000e+02
8.320312500000000000e+02
8.281250000000000000e+02
4.742187500000000000e+03
7.656250000000000000e+02
1.904687500000000000e+04
1.660156250000000000e+03
8.242187500000000000e+02
2.390625000000000000e+03
8.437500000000000000e+02
8.945312500000000000e+02
9.179687500000000000e+02
9.218750000000000000e+02
9.414062500000000000e+02
3.625000000000000000e+03
1.839843750000000000e+03
2.792968750000000000e+03
9.531250000000000000e+02
9.687500000000000000e+02
9.882812500000000000e+02
9.726562500000000000e+02
2.867187500000000000e+03
9.488281250000000000e+03
9.687500000000000000e+02
9.648437500000000000e+02
9.765625000000000000e+02
9.609375000000000000e+02
9.453125000000000000e+02
9.414062500000000000e+02
2.812500000000000000e+03
5.621093750000000000e+03
6.656250000000000000e+03
1.890625000000000000e+03
9.101562500000000000e+02
8.828125000000000000e+02
2.402343750000000000e+03
7.617187500000000000e+02
7.812500000000000000e+02
8.203125000000000000e+02
8.437500000000000000e+02
8.867187500000000000e+02
2.843750000000000000e+03
9.570312500000000000e+02
9.609375000000000000e+02
9.492187500000000000e+02
9.492187500000000000e+02
1.882812500000000000e+03
9.257812500000000000e+02
9.296875000000000000e+02
1.773437500000000000e+03
8.984375000000000000e+02
3.753906250000000000e+03
9.375000000000000000e+02
9.296875000000000000e+02
8.945312500000000000e+02
8.554687500000000000e+02
1.526171875000000000e+04
5.746093750000000000e+03
9.648437500000000000e+02
9.609375000000000000e+02
9.609375000000000000e+02
2.867187500000000000e+03
9.531250000000000000e+02
9.570312500000000000e+02
2.789062500000000000e+03
8.671875000000000000e+02
8.203125000000000000e+02
7.968750000000000000e+02
1.578125000000000000e+03
3.128906250000000000e+03
4.550781250000000000e+03
1.761718750000000000e+03
1.398437500000000000e+03
2.417968750000000000e+03
5.855468750000000000e+03
9.414062500000000000e+02
1.886718750000000000e+03
1.796875000000000000e+03
1.789062500000000000e+03
6.492187500000000000e+03
9.257812500000000000e+02
9.296875000000000000e+02
2.808593750000000000e+03
2.777343750000000000e+03
9.218750000000000000e+02
8.984375000000000000e+02
4.488281250000000000e+03
2.613281250000000000e+03
8.515625000000000000e+02
8.476562500000000000e+02
8.476562500000000000e+02
8.281250000000000000e+02
5.796875000000000000e+03
7.929687500000000000e+02
8.007812500000000000e+02
7.968750000000000000e+02
8.203125000000000000e+02
8.242187500000000000e+02
8.164062500000000000e+02
3.394531250000000000e+03
1.738281250000000000e+03
8.710937500000000000e+02
8.515625000000000000e+02
8.437500000000000000e+02
8.164062500000000000e+02
7.851562500000000000e+02
7.695312500000000000e+02
7.929687500000000000e+02
8.007812500000000000e+02
8.164062500000000000e+02
1.703125000000000000e+03
8.359375000000000000e+02
2.492187500000000000e+03
1.644531250000000000e+03
1.699218750000000000e+03
2.578125000000000000e+03
2.671875000000000000e+03
1.773437500000000000e+03
8.230468750000000000e+03
3.695312500000000000e+03
8.984375000000000000e+02
1.773437500000000000e+03
3.488281250000000000e+03
9.023437500000000000e+02
8.710937500000000000e+02
8.710937500000000000e+02
8.984375000000000000e+02
1.800781250000000000e+03
8.671875000000000000e+02
8.320312500000000000e+02
7.968750000000000000e+02
7.617187500000000000e+02
7.539062500000000000e+02
7.500000000000000000e+02
7.812500000000000000e+02
8.203125000000000000e+02
8.554687500000000000e+02
8.945312500000000000e+02
9.101562500000000000e+02
9.023437500000000000e+02
2.710937500000000000e+03
8.828125000000000000e+02
8.671875000000000000e+02
8.828125000000000000e+02
8.710937500000000000e+02
8.710937500000000000e+02
8.593750000000000000e+02
8.867187500000000000e+02
8.789062500000000000e+02
8.984375000000000000e+02
8.984375000000000000e+02
9.140625000000000000e+02
9.062500000000000000e+02
9.257812500000000000e+02
