1.312500000000000000e+03
1.285156250000000000e+03
6.679687500000000000e+02
6.992187500000000000e+02
7.226562500000000000e+02
7.343750000000000000e+02
7.539062500000000000e+02
7.578125000000000000e+02
7.812500000000000000e+02
7.812500000000000000e+02
7.734375000000000000e+02
7.929687500000000000e+02
7.773437500000000000e+02
7.812500000000000000e+02
7.539062500000000000e+02
7.578125000000000000e+02
7.421875000000000000e+02
7.187500000000000000e+02
7.265625000000000000e+02
7.187500000000000000e+02
7.109375000000000000e+02
7.187500000000000000e+02
7.148437500000000000e+02
7.109375000000000000e+02
7.031250000000000000e+02
7.148437500000000000e+02
7.148437500000000000e+02
7.109375000000000000e+02
7.109375000000000000e+02
7.109375000000000000e+02
7.070312500000000000e+02
7.070312500000000000e+02
1.433593750000000000e+03
7.226562500000000000e+02
7.265625000000000000e+02
7.109375000000000000e+02
7.187500000000000000e+02
7.265625000000000000e+02
7.187500000000000000e+02
7.148437500000000000e+02
2.136718750000000000e+03
7.148437500000000000e+02
7.226562500000000000e+02
7.109375000000000000e+02
7.304687500000000000e+02
7.187500000000000000e+02
7.148437500000000000e+02
7.187500000000000000e+02
1.437500000000000000e+03
7.226562500000000000e+02
7.187500000000000000e+02
7.187500000000000000e+02
7.226562500000000000e+02
7.226562500000000000e+02
7.148437500000000000e+02
7.070312500000000000e+02
7.109375000000000000e+02
6.992187500000000000e+02
7.109375000000000000e+02
6.953125000000000000e+02
7.148437500000000000e+02
7.187500000000000000e+02
7.187500000000000000e+02
7.304687500000000000e+02
7.421875000000000000e+02
7.382812500000000000e+02
7.421875000000000000e+02
7.617187500000000000e+02
7.578125000000000000e+02
7.656250000000000000e+02
7.617187500000000000e+02
7.539062500000000000e+02
7.421875000000000000e+02
7.343750000000000000e+02
7.304687500000000000e+02
7.187500000000000000e+02
7.031250000000000000e+02
7.148437500000000000e+02
7.226562500000000000e+02
7.343750000000000000e+02
7.304687500000000000e+02
7.382812500000000000e+02
7.382812500000000000e+02
7.460937500000000000e+02
7.695312500000000000e+02
7.460937500000000000e+02
7.773437500000000000e+02
7.890625000000000000e+02
7.812500000000000000e+02
7.890625000000000000e+02
8.007812500000000000e+02
7.695312500000000000e+02
7.890625000000000000e+02
7.929687500000000000e+02
7.812500000000000000e+02
7.929687500000000000e+02
8.046875000000000000e+02
8.007812500000000000e+02
8.125000000000000000e+02
8.085937500000000000e+02
7.968750000000000000e+02
8.007812500000000000e+02
7.734375000000000000e+02
7.734375000000000000e+02
7.460937500000000000e+02
7.539062500000000000e+02
7.617187500000000000e+02
7.734375000000000000e+02
7.734375000000000000e+02
7.968750000000000000e+02
8.125000000000000000e+02
8.046875000000000000e+02
8.242187500000000000e+02
8.710937500000000000e+02
8.867187500000000000e+02
9.101562500000000000e+02
9.218750000000000000e+02
9.062500000000000000e+02
8.632812500000000000e+02
8.593750000000000000e+02
8.281250000000000000e+02
8.515625000000000000e+02
8.750000000000000000e+02
8.125000000000000000e+02
8.750000000000000000e+02
8.789062500000000000e+02
8.437500000000000000e+02
8.710937500000000000e+02
9.101562500000000000e+02
9.218750000000000000e+02
8.945312500000000000e+02
9.101562500000000000e+02
9.140625000000000000e+02
9.257812500000000000e+02
9.218750000000000000e+02
8.750000000000000000e+02
8.359375000000000000e+02
8.398437500000000000e+02
8.593750000000000000e+02
8.671875000000000000e+02
9.101562500000000000e+02
8.906250000000000000e+02
9.023437500000000000e+02
8.476562500000000000e+02
8.632812500000000000e+02
8.281250000000000000e+02
8.632812500000000000e+02
8.984375000000000000e+02
8.671875000000000000e+02
8.867187500000000000e+02
9.023437500000000000e+02
9.023437500000000000e+02
8.554687500000000000e+02
8.125000000000000000e+02
8.281250000000000000e+02
8.398437500000000000e+02
8.242187500000000000e+02
8.359375000000000000e+02
8.593750000000000000e+02
8.593750000000000000e+02
8.398437500000000000e+02
8.320312500000000000e+02
8.671875000000000000e+02
8.828125000000000000e+02
8.789062500000000000e+02
9.062500000000000000e+02
9.140625000000000000e+02
8.710937500000000000e+02
1.457031250000000000e+03
1.078125000000000000e+03
8.476562500000000000e+02
8.398437500000000000e+02
8.515625000000000000e+02
8.359375000000000000e+02
8.125000000000000000e+02
8.164062500000000000e+02
8.164062500000000000e+02
8.281250000000000000e+02
8.203125000000000000e+02
8.125000000000000000e+02
3.093750000000000000e+03
1.531250000000000000e+03
7.890625000000000000e+02
7.890625000000000000e+02
8.125000000000000000e+02
1.726562500000000000e+03
1.175781250000000000e+03
8.476562500000000000e+02
6.953125000000000000e+02
8.515625000000000000e+02
1.023437500000000000e+03
1.535156250000000000e+03
7.695312500000000000e+02
7.812500000000000000e+02
1.566406250000000000e+03
7.773437500000000000e+02
7.695312500000000000e+02
7.617187500000000000e+02
7.851562500000000000e+02
7.773437500000000000e+02
7.773437500000000000e+02
7.734375000000000000e+02
7.812500000000000000e+02
8.281250000000000000e+02
8.632812500000000000e+02
8.632812500000000000e+02
8.476562500000000000e+02
8.554687500000000000e+02
8.554687500000000000e+02
8.554687500000000000e+02
1.695312500000000000e+03
6.835937500000000000e+02
1.160156250000000000e+03
1.109375000000000000e+03
9.804687500000000000e+02
7.968750000000000000e+02
8.593750000000000000e+02
7.031250000000000000e+02
1.308593750000000000e+03
1.230468750000000000e+03
8.984375000000000000e+02
8.398437500000000000e+02
8.671875000000000000e+02
8.398437500000000000e+02
8.554687500000000000e+02
8.554687500000000000e+02
8.554687500000000000e+02
7.851562500000000000e+02
8.320312500000000000e+02
8.437500000000000000e+02
1.652343750000000000e+03
8.789062500000000000e+02
8.437500000000000000e+02
8.750000000000000000e+02
8.789062500000000000e+02
8.515625000000000000e+02
8.710937500000000000e+02
9.140625000000000000e+02
8.867187500000000000e+02
9.414062500000000000e+02
9.257812500000000000e+02
2.789062500000000000e+03
9.140625000000000000e+02
9.296875000000000000e+02
9.179687500000000000e+02
9.257812500000000000e+02
9.453125000000000000e+02
9.335937500000000000e+02
9.101562500000000000e+02
9.335937500000000000e+02
9.140625000000000000e+02
9.257812500000000000e+02
9.492187500000000000e+02
9.179687500000000000e+02
9.062500000000000000e+02
9.335937500000000000e+02
9.023437500000000000e+02
8.984375000000000000e+02
9.296875000000000000e+02
9.062500000000000000e+02
8.359375000000000000e+02
8.554687500000000000e+02
8.515625000000000000e+02
8.359375000000000000e+02
1.648437500000000000e+03
7.968750000000000000e+02
8.046875000000000000e+02
7.890625000000000000e+02
1.011718750000000000e+03
1.320312500000000000e+03
7.500000000000000000e+02
7.500000000000000000e+02
7.343750000000000000e+02
1.468750000000000000e+03
1.523437500000000000e+03
2.324218750000000000e+03
8.906250000000000000e+02
2.199218750000000000e+03
4.605468750000000000e+03
8.613281250000000000e+03
3.523437500000000000e+03
1.824218750000000000e+03
1.831640625000000000e+04
8.750000000000000000e+02
1.785156250000000000e+03
8.945312500000000000e+02
1.714843750000000000e+03
3.546875000000000000e+03
8.906250000000000000e+02
2.104687500000000000e+04
1.867187500000000000e+03
9.375000000000000000e+02
9.804687500000000000e+02
3.769531250000000000e+03
2.347265625000000000e+04
9.062500000000000000e+02
4.965234375000000000e+04
1.796875000000000000e+03
2.726562500000000000e+03
1.781250000000000000e+03
6.515625000000000000e+03
8.476562500000000000e+02
8.945312500000000000e+02
9.335937500000000000e+02
6.281250000000000000e+03
3.503906250000000000e+03
6.460937500000000000e+03
7.160156250000000000e+03
1.699218750000000000e+03
8.805859375000000000e+04
8.667968750000000000e+03
1.425781250000000000e+03
6.280859375000000000e+04
6.916406250000000000e+04
6.214843750000000000e+03
8.984375000000000000e+02
1.699218750000000000e+03
3.837500000000000000e+04
7.382812500000000000e+02
2.875000000000000000e+03
1.378906250000000000e+03
6.757812500000000000e+02
1.921875000000000000e+03
3.730468750000000000e+03
3.765625000000000000e+03
1.449218750000000000e+03
2.222656250000000000e+03
1.302343750000000000e+04
1.366406250000000000e+04
6.867187500000000000e+03
4.703125000000000000e+03
1.058593750000000000e+03
1.332031250000000000e+03
7.265625000000000000e+02
7.226562500000000000e+02
7.187500000000000000e+02
6.757812500000000000e+02
6.757812500000000000e+02
6.757812500000000000e+02
7.070312500000000000e+02
8.007812500000000000e+02
1.062500000000000000e+03
1.238281250000000000e+03
1.308593750000000000e+03
6.914062500000000000e+02
6.796875000000000000e+02
6.757812500000000000e+02
2.218750000000000000e+03
1.597656250000000000e+03
8.554687500000000000e+02
2.609375000000000000e+03
9.062500000000000000e+02
4.394531250000000000e+03
2.644531250000000000e+03
8.203125000000000000e+02
7.968750000000000000e+02
7.929687500000000000e+02
1.554687500000000000e+03
7.812500000000000000e+02
3.207031250000000000e+03
8.359375000000000000e+02
1.625000000000000000e+03
1.652343750000000000e+03
7.851562500000000000e+02
8.007812500000000000e+02
8.007812500000000000e+02
7.656250000000000000e+02
7.578125000000000000e+02
7.187500000000000000e+02
7.187500000000000000e+02
7.265625000000000000e+02
7.539062500000000000e+02
7.500000000000000000e+02
7.578125000000000000e+02
7.773437500000000000e+02
8.125000000000000000e+02
8.203125000000000000e+02
7.890625000000000000e+02
1.570312500000000000e+03
7.695312500000000000e+02
2.277343750000000000e+03
3.582031250000000000e+03
6.796875000000000000e+02
6.796875000000000000e+02
1.304687500000000000e+03
2.265625000000000000e+03
8.203125000000000000e+02
8.632812500000000000e+02
8.789062500000000000e+02
8.671875000000000000e+02
8.671875000000000000e+02
8.515625000000000000e+02
8.554687500000000000e+02
8.320312500000000000e+02
8.320312500000000000e+02
8.085937500000000000e+02
7.695312500000000000e+02
8.007812500000000000e+02
8.125000000000000000e+02
8.164062500000000000e+02
8.359375000000000000e+02
1.625000000000000000e+03
1.648437500000000000e+03
1.574218750000000000e+03
7.539062500000000000e+02
7.968750000000000000e+02
8.085937500000000000e+02
8.398437500000000000e+02
8.632812500000000000e+02
8.945312500000000000e+02
8.906250000000000000e+02
8.828125000000000000e+02
8.632812500000000000e+02
8.867187500000000000e+02
4.175781250000000000e+03
1.644531250000000000e+03
3.339843750000000000e+03
1.699218750000000000e+03
8.398437500000000000e+02
8.476562500000000000e+02
8.828125000000000000e+02
8.828125000000000000e+02
8.984375000000000000e+02
8.828125000000000000e+02
1.753906250000000000e+03
8.515625000000000000e+02
8.398437500000000000e+02
8.554687500000000000e+02
1.687500000000000000e+03
1.640625000000000000e+03
6.671875000000000000e+03
6.515625000000000000e+03
8.476562500000000000e+02
7.890625000000000000e+02
8.281250000000000000e+02
1.589843750000000000e+03
7.812500000000000000e+02
7.929687500000000000e+02
7.734375000000000000e+02
5.113281250000000000e+03
1.312500000000000000e+03
1.550781250000000000e+03
7.617187500000000000e+02
1.539062500000000000e+03
1.523437500000000000e+03
7.421875000000000000e+02
7.382812500000000000e+02
7.343750000000000000e+02
7.343750000000000000e+02
6.914062500000000000e+02
6.875000000000000000e+02
6.835937500000000000e+02
1.937500000000000000e+03
