8.242187500000000000e+02
8.046875000000000000e+02
7.968750000000000000e+02
8.203125000000000000e+02
8.320312500000000000e+02
8.437500000000000000e+02
8.085937500000000000e+02
8.007812500000000000e+02
8.710937500000000000e+02
8.906250000000000000e+02
9.023437500000000000e+02
8.828125000000000000e+02
8.984375000000000000e+02
8.554687500000000000e+02
8.476562500000000000e+02
8.320312500000000000e+02
8.320312500000000000e+02
8.007812500000000000e+02
2.457031250000000000e+03
8.554687500000000000e+02
8.906250000000000000e+02
9.023437500000000000e+02
8.632812500000000000e+02
8.789062500000000000e+02
8.984375000000000000e+02
8.789062500000000000e+02
8.359375000000000000e+02
8.359375000000000000e+02
8.164062500000000000e+02
8.203125000000000000e+02
8.125000000000000000e+02
7.968750000000000000e+02
8.320312500000000000e+02
1.558593750000000000e+03
8.125000000000000000e+02
8.320312500000000000e+02
7.773437500000000000e+02
8.046875000000000000e+02
7.812500000000000000e+02
7.695312500000000000e+02
7.539062500000000000e+02
7.656250000000000000e+02
7.812500000000000000e+02
7.500000000000000000e+02
8.203125000000000000e+02
1.574218750000000000e+03
7.734375000000000000e+02
7.578125000000000000e+02
7.304687500000000000e+02
7.265625000000000000e+02
7.304687500000000000e+02
7.187500000000000000e+02
2.070312500000000000e+03
2.632812500000000000e+03
7.070312500000000000e+02
7.656250000000000000e+02
7.265625000000000000e+02
7.070312500000000000e+02
7.148437500000000000e+02
7.343750000000000000e+02
7.460937500000000000e+02
8.007812500000000000e+02
7.929687500000000000e+02
7.929687500000000000e+02
7.656250000000000000e+02
1.468750000000000000e+03
6.835937500000000000e+02
6.835937500000000000e+02
6.679687500000000000e+02
3.312500000000000000e+03
1.261718750000000000e+03
1.753906250000000000e+03
1.132812500000000000e+03
1.144531250000000000e+03
1.156250000000000000e+03
6.796875000000000000e+02
1.320312500000000000e+03
7.265625000000000000e+02
1.425781250000000000e+03
7.578125000000000000e+02
7.148437500000000000e+02
7.773437500000000000e+02
6.875000000000000000e+02
1.484375000000000000e+03
8.125000000000000000e+02
1.054687500000000000e+03
1.464843750000000000e+03
1.273437500000000000e+03
1.351562500000000000e+03
6.992187500000000000e+02
7.070312500000000000e+02
1.367187500000000000e+03
6.914062500000000000e+02
6.875000000000000000e+02
6.953125000000000000e+02
6.679687500000000000e+02
6.718750000000000000e+02
1.343750000000000000e+03
2.074218750000000000e+03
6.796875000000000000e+02
7.031250000000000000e+02
7.226562500000000000e+02
7.226562500000000000e+02
7.109375000000000000e+02
7.031250000000000000e+02
6.992187500000000000e+02
6.992187500000000000e+02
1.398437500000000000e+03
7.031250000000000000e+02
7.109375000000000000e+02
7.148437500000000000e+02
1.308593750000000000e+03
6.796875000000000000e+02
6.914062500000000000e+02
7.070312500000000000e+02
6.914062500000000000e+02
7.109375000000000000e+02
7.265625000000000000e+02
7.382812500000000000e+02
7.109375000000000000e+02
1.441406250000000000e+03
6.875000000000000000e+02
6.992187500000000000e+02
6.796875000000000000e+02
6.875000000000000000e+02
1.375000000000000000e+03
7.382812500000000000e+02
1.535156250000000000e+03
7.460937500000000000e+02
7.460937500000000000e+02
7.343750000000000000e+02
7.343750000000000000e+02
7.382812500000000000e+02
7.500000000000000000e+02
7.460937500000000000e+02
6.718750000000000000e+02
7.148437500000000000e+02
7.187500000000000000e+02
7.578125000000000000e+02
7.695312500000000000e+02
7.187500000000000000e+02
7.265625000000000000e+02
7.265625000000000000e+02
6.875000000000000000e+02
1.339843750000000000e+03
1.375000000000000000e+03
6.757812500000000000e+02
6.718750000000000000e+02
1.304687500000000000e+03
6.914062500000000000e+02
7.148437500000000000e+02
7.109375000000000000e+02
6.835937500000000000e+02
7.226562500000000000e+02
7.656250000000000000e+02
7.343750000000000000e+02
6.992187500000000000e+02
7.226562500000000000e+02
7.148437500000000000e+02
1.378906250000000000e+03
6.835937500000000000e+02
6.953125000000000000e+02
7.304687500000000000e+02
7.695312500000000000e+02
7.500000000000000000e+02
7.929687500000000000e+02
8.281250000000000000e+02
7.695312500000000000e+02
7.968750000000000000e+02
7.890625000000000000e+02
7.617187500000000000e+02
7.851562500000000000e+02
7.421875000000000000e+02
7.734375000000000000e+02
7.382812500000000000e+02
2.312500000000000000e+03
7.460937500000000000e+02
7.929687500000000000e+02
7.773437500000000000e+02
7.812500000000000000e+02
7.460937500000000000e+02
7.500000000000000000e+02
7.539062500000000000e+02
7.460937500000000000e+02
7.382812500000000000e+02
7.578125000000000000e+02
7.304687500000000000e+02
7.656250000000000000e+02
7.695312500000000000e+02
7.460937500000000000e+02
7.578125000000000000e+02
7.968750000000000000e+02
7.929687500000000000e+02
8.281250000000000000e+02
8.046875000000000000e+02
8.046875000000000000e+02
7.929687500000000000e+02
7.617187500000000000e+02
7.968750000000000000e+02
8.007812500000000000e+02
8.046875000000000000e+02
7.929687500000000000e+02
7.734375000000000000e+02
1.519531250000000000e+03
7.265625000000000000e+02
7.226562500000000000e+02
7.460937500000000000e+02
7.578125000000000000e+02
2.140625000000000000e+03
7.343750000000000000e+02
7.070312500000000000e+02
7.265625000000000000e+02
7.812500000000000000e+02
7.812500000000000000e+02
7.382812500000000000e+02
7.265625000000000000e+02
6.992187500000000000e+02
7.148437500000000000e+02
7.265625000000000000e+02
6.914062500000000000e+02
7.265625000000000000e+02
7.382812500000000000e+02
7.460937500000000000e+02
7.070312500000000000e+02
7.773437500000000000e+02
8.476562500000000000e+02
8.085937500000000000e+02
8.320312500000000000e+02
8.437500000000000000e+02
8.476562500000000000e+02
8.320312500000000000e+02
8.203125000000000000e+02
7.734375000000000000e+02
8.125000000000000000e+02
7.343750000000000000e+02
7.265625000000000000e+02
7.421875000000000000e+02
6.875000000000000000e+02
6.992187500000000000e+02
2.156250000000000000e+03
7.539062500000000000e+02
7.578125000000000000e+02
7.890625000000000000e+02
8.203125000000000000e+02
7.929687500000000000e+02
7.578125000000000000e+02
7.929687500000000000e+02
7.851562500000000000e+02
7.968750000000000000e+02
7.460937500000000000e+02
7.500000000000000000e+02
7.539062500000000000e+02
7.539062500000000000e+02
7.265625000000000000e+02
7.617187500000000000e+02
7.929687500000000000e+02
7.656250000000000000e+02
8.203125000000000000e+02
7.851562500000000000e+02
8.203125000000000000e+02
8.085937500000000000e+02
8.125000000000000000e+02
7.929687500000000000e+02
7.773437500000000000e+02
7.929687500000000000e+02
8.398437500000000000e+02
8.007812500000000000e+02
8.242187500000000000e+02
8.007812500000000000e+02
9.921875000000000000e+02
7.695312500000000000e+02
1.355468750000000000e+03
2.179687500000000000e+03
7.226562500000000000e+02
6.679687500000000000e+02
7.148437500000000000e+02
6.835937500000000000e+02
1.457031250000000000e+03
7.382812500000000000e+02
7.343750000000000000e+02
8.007812500000000000e+02
7.734375000000000000e+02
7.382812500000000000e+02
7.929687500000000000e+02
7.851562500000000000e+02
7.539062500000000000e+02
7.617187500000000000e+02
7.734375000000000000e+02
7.617187500000000000e+02
7.656250000000000000e+02
7.500000000000000000e+02
7.773437500000000000e+02
7.382812500000000000e+02
7.382812500000000000e+02
7.265625000000000000e+02
1.500000000000000000e+03
7.187500000000000000e+02
7.578125000000000000e+02
7.968750000000000000e+02
8.007812500000000000e+02
7.812500000000000000e+02
7.617187500000000000e+02
7.578125000000000000e+02
7.382812500000000000e+02
7.656250000000000000e+02
7.734375000000000000e+02
7.812500000000000000e+02
7.734375000000000000e+02
7.656250000000000000e+02
7.617187500000000000e+02
7.929687500000000000e+02
7.695312500000000000e+02
8.164062500000000000e+02
7.773437500000000000e+02
7.968750000000000000e+02
7.695312500000000000e+02
7.460937500000000000e+02
7.343750000000000000e+02
1.382812500000000000e+03
2.066406250000000000e+03
9.843750000000000000e+02
6.875000000000000000e+02
1.414062500000000000e+03
7.382812500000000000e+02
7.656250000000000000e+02
7.773437500000000000e+02
7.695312500000000000e+02
7.773437500000000000e+02
7.695312500000000000e+02
7.929687500000000000e+02
7.226562500000000000e+02
2.121093750000000000e+03
6.679687500000000000e+02
7.031250000000000000e+02
2.007812500000000000e+03
6.718750000000000000e+02
6.953125000000000000e+02
7.187500000000000000e+02
6.953125000000000000e+02
7.226562500000000000e+02
7.382812500000000000e+02
1.523437500000000000e+03
7.109375000000000000e+02
7.500000000000000000e+02
7.304687500000000000e+02
7.070312500000000000e+02
6.992187500000000000e+02
6.875000000000000000e+02
1.992187500000000000e+03
6.835937500000000000e+02
6.992187500000000000e+02
7.109375000000000000e+02
7.382812500000000000e+02
1.453125000000000000e+03
1.523437500000000000e+03
1.476562500000000000e+03
7.148437500000000000e+02
7.304687500000000000e+02
6.718750000000000000e+02
6.835937500000000000e+02
1.949218750000000000e+03
6.875000000000000000e+02
1.347656250000000000e+03
1.324218750000000000e+03
1.285156250000000000e+03
6.679687500000000000e+02
6.992187500000000000e+02
6.875000000000000000e+02
6.953125000000000000e+02
7.148437500000000000e+02
7.343750000000000000e+02
7.070312500000000000e+02
7.148437500000000000e+02
7.343750000000000000e+02
7.421875000000000000e+02
7.265625000000000000e+02
7.500000000000000000e+02
7.343750000000000000e+02
7.382812500000000000e+02
7.304687500000000000e+02
1.472656250000000000e+03
1.515625000000000000e+03
7.460937500000000000e+02
7.539062500000000000e+02
7.460937500000000000e+02
7.578125000000000000e+02
7.265625000000000000e+02
7.343750000000000000e+02
1.488281250000000000e+03
7.382812500000000000e+02
7.109375000000000000e+02
7.148437500000000000e+02
1.406250000000000000e+03
7.304687500000000000e+02
7.187500000000000000e+02
7.343750000000000000e+02
7.656250000000000000e+02
7.890625000000000000e+02
3.914062500000000000e+03
3.035156250000000000e+03
7.500000000000000000e+02
7.500000000000000000e+02
7.617187500000000000e+02
7.500000000000000000e+02
7.695312500000000000e+02
7.851562500000000000e+02
1.402343750000000000e+03
9.882812500000000000e+02
7.460937500000000000e+02
7.617187500000000000e+02
7.382812500000000000e+02
7.109375000000000000e+02
7.265625000000000000e+02
7.382812500000000000e+02
7.421875000000000000e+02
7.460937500000000000e+02
7.460937500000000000e+02
7.304687500000000000e+02
7.343750000000000000e+02
7.304687500000000000e+02
7.500000000000000000e+02
7.070312500000000000e+02
2.921875000000000000e+03
1.542968750000000000e+03
1.578125000000000000e+03
7.265625000000000000e+02
7.343750000000000000e+02
7.617187500000000000e+02
7.070312500000000000e+02
7.343750000000000000e+02
1.437500000000000000e+03
6.914062500000000000e+02
7.031250000000000000e+02
7.187500000000000000e+02
7.382812500000000000e+02
7.187500000000000000e+02
7.070312500000000000e+02
7.304687500000000000e+02
7.460937500000000000e+02
7.382812500000000000e+02
7.617187500000000000e+02
7.226562500000000000e+02
2.175781250000000000e+03
7.421875000000000000e+02
7.187500000000000000e+02
7.343750000000000000e+02
7.656250000000000000e+02
7.656250000000000000e+02
7.265625000000000000e+02
7.343750000000000000e+02
7.617187500000000000e+02
7.148437500000000000e+02
7.500000000000000000e+02
7.109375000000000000e+02
1.437500000000000000e+03
7.343750000000000000e+02
7.265625000000000000e+02
7.382812500000000000e+02
7.226562500000000000e+02
7.031250000000000000e+02
7.265625000000000000e+02
7.343750000000000000e+02
7.226562500000000000e+02
1.343750000000000000e+03
1.308593750000000000e+03
6.875000000000000000e+02
7.382812500000000000e+02
7.773437500000000000e+02
1.578125000000000000e+03
7.851562500000000000e+02
7.734375000000000000e+02
7.304687500000000000e+02
7.539062500000000000e+02
7.226562500000000000e+02
7.617187500000000000e+02
7.265625000000000000e+02
3.000000000000000000e+03
7.578125000000000000e+02
1.488281250000000000e+03
7.617187500000000000e+02
7.500000000000000000e+02
7.500000000000000000e+02
6.992187500000000000e+02
7.617187500000000000e+02
7.070312500000000000e+02
7.460937500000000000e+02
7.851562500000000000e+02
7.304687500000000000e+02
7.382812500000000000e+02
6.953125000000000000e+02
7.148437500000000000e+02
1.320312500000000000e+03
6.953125000000000000e+02
6.757812500000000000e+02
6.679687500000000000e+02
6.718750000000000000e+02
1.316406250000000000e+03
6.679687500000000000e+02
6.835937500000000000e+02
7.421875000000000000e+02
7.109375000000000000e+02
7.343750000000000000e+02
7.343750000000000000e+02
6.835937500000000000e+02
6.914062500000000000e+02
6.992187500000000000e+02
7.187500000000000000e+02
7.070312500000000000e+02
7.031250000000000000e+02
7.109375000000000000e+02
6.679687500000000000e+02
2.066406250000000000e+03
7.304687500000000000e+02
7.304687500000000000e+02
7.500000000000000000e+02
7.773437500000000000e+02
7.539062500000000000e+02
7.539062500000000000e+02
9.609375000000000000e+02
1.308593750000000000e+03
6.914062500000000000e+02
7.226562500000000000e+02
7.109375000000000000e+02
6.757812500000000000e+02
7.070312500000000000e+02
7.109375000000000000e+02
7.070312500000000000e+02
7.148437500000000000e+02
7.109375000000000000e+02
7.187500000000000000e+02
7.304687500000000000e+02
7.539062500000000000e+02
7.500000000000000000e+02
7.382812500000000000e+02
7.265625000000000000e+02
7.070312500000000000e+02
6.718750000000000000e+02
6.679687500000000000e+02
6.718750000000000000e+02
6.718750000000000000e+02
6.953125000000000000e+02
6.718750000000000000e+02
6.953125000000000000e+02
7.382812500000000000e+02
7.578125000000000000e+02
1.550781250000000000e+03
7.578125000000000000e+02
7.460937500000000000e+02
6.953125000000000000e+02
7.265625000000000000e+02
1.429687500000000000e+03
6.953125000000000000e+02
7.226562500000000000e+02
6.796875000000000000e+02
1.496093750000000000e+03
2.156250000000000000e+03
7.421875000000000000e+02
7.265625000000000000e+02
7.265625000000000000e+02
7.070312500000000000e+02
6.914062500000000000e+02
7.109375000000000000e+02
6.679687500000000000e+02
6.953125000000000000e+02
7.031250000000000000e+02
6.835937500000000000e+02
6.757812500000000000e+02
6.796875000000000000e+02
7.148437500000000000e+02
1.441406250000000000e+03
7.148437500000000000e+02
1.367187500000000000e+03
1.335937500000000000e+03
7.187500000000000000e+02
6.835937500000000000e+02
1.386718750000000000e+03
6.875000000000000000e+02
7.187500000000000000e+02
7.265625000000000000e+02
7.265625000000000000e+02
7.187500000000000000e+02
7.148437500000000000e+02
6.796875000000000000e+02
1.332031250000000000e+03
1.289062500000000000e+03
6.914062500000000000e+02
6.835937500000000000e+02
1.332031250000000000e+03
7.187500000000000000e+02
6.992187500000000000e+02
1.367187500000000000e+03
1.343750000000000000e+03
1.996093750000000000e+03
6.796875000000000000e+02
6.718750000000000000e+02
6.718750000000000000e+02
7.031250000000000000e+02
7.070312500000000000e+02
7.109375000000000000e+02
7.265625000000000000e+02
1.304687500000000000e+03
6.796875000000000000e+02
1.335937500000000000e+03
1.328125000000000000e+03
1.367187500000000000e+03
6.875000000000000000e+02
7.343750000000000000e+02
1.484375000000000000e+03
9.023437500000000000e+02
1.277343750000000000e+03
7.226562500000000000e+02
1.468750000000000000e+03
7.070312500000000000e+02
6.796875000000000000e+02
1.386718750000000000e+03
7.382812500000000000e+02
1.371093750000000000e+03
7.460937500000000000e+02
6.835937500000000000e+02
7.148437500000000000e+02
7.070312500000000000e+02
6.875000000000000000e+02
6.992187500000000000e+02
7.070312500000000000e+02
7.148437500000000000e+02
6.718750000000000000e+02
7.226562500000000000e+02
6.757812500000000000e+02
7.265625000000000000e+02
6.679687500000000000e+02
6.835937500000000000e+02
7.148437500000000000e+02
7.421875000000000000e+02
1.468750000000000000e+03
7.421875000000000000e+02
7.460937500000000000e+02
7.031250000000000000e+02
6.953125000000000000e+02
6.953125000000000000e+02
6.875000000000000000e+02
1.339843750000000000e+03
1.359375000000000000e+03
7.265625000000000000e+02
1.265625000000000000e+03
8.242187500000000000e+02
1.074218750000000000e+03
6.757812500000000000e+02
7.460937500000000000e+02
6.835937500000000000e+02
7.031250000000000000e+02
7.382812500000000000e+02
7.890625000000000000e+02
7.265625000000000000e+02
1.472656250000000000e+03
7.265625000000000000e+02
1.445312500000000000e+03
7.343750000000000000e+02
6.953125000000000000e+02
1.480468750000000000e+03
7.187500000000000000e+02
6.914062500000000000e+02
7.304687500000000000e+02
6.796875000000000000e+02
7.265625000000000000e+02
7.382812500000000000e+02
7.304687500000000000e+02
7.343750000000000000e+02
7.031250000000000000e+02
7.500000000000000000e+02
6.875000000000000000e+02
7.578125000000000000e+02
7.031250000000000000e+02
7.109375000000000000e+02
7.421875000000000000e+02
7.500000000000000000e+02
7.617187500000000000e+02
7.226562500000000000e+02
7.460937500000000000e+02
7.382812500000000000e+02
7.187500000000000000e+02
6.992187500000000000e+02
7.421875000000000000e+02
6.992187500000000000e+02
7.265625000000000000e+02
7.187500000000000000e+02
7.109375000000000000e+02
6.953125000000000000e+02
7.031250000000000000e+02
6.757812500000000000e+02
1.339843750000000000e+03
6.835937500000000000e+02
1.332031250000000000e+03
6.718750000000000000e+02
6.953125000000000000e+02
7.226562500000000000e+02
1.421875000000000000e+03
7.265625000000000000e+02
7.265625000000000000e+02
7.148437500000000000e+02
7.031250000000000000e+02
6.875000000000000000e+02
6.796875000000000000e+02
1.292968750000000000e+03
1.179687500000000000e+03
1.179687500000000000e+03
1.179687500000000000e+03
