8.007812500000000000e+02
7.929687500000000000e+02
7.695312500000000000e+02
7.773437500000000000e+02
7.773437500000000000e+02
7.851562500000000000e+02
7.382812500000000000e+02
7.578125000000000000e+02
7.578125000000000000e+02
1.503906250000000000e+03
7.382812500000000000e+02
7.226562500000000000e+02
7.500000000000000000e+02
8.125000000000000000e+02
1.675781250000000000e+03
8.515625000000000000e+02
8.085937500000000000e+02
8.007812500000000000e+02
7.929687500000000000e+02
7.734375000000000000e+02
7.656250000000000000e+02
7.226562500000000000e+02
7.304687500000000000e+02
7.539062500000000000e+02
7.617187500000000000e+02
7.656250000000000000e+02
8.046875000000000000e+02
8.125000000000000000e+02
7.851562500000000000e+02
8.242187500000000000e+02
8.320312500000000000e+02
8.125000000000000000e+02
7.851562500000000000e+02
7.968750000000000000e+02
7.812500000000000000e+02
7.695312500000000000e+02
7.578125000000000000e+02
8.046875000000000000e+02
7.929687500000000000e+02
7.968750000000000000e+02
8.085937500000000000e+02
8.242187500000000000e+02
8.046875000000000000e+02
8.281250000000000000e+02
8.398437500000000000e+02
7.656250000000000000e+02
7.656250000000000000e+02
7.578125000000000000e+02
7.109375000000000000e+02
6.875000000000000000e+02
1.320312500000000000e+03
1.261718750000000000e+03
1.265625000000000000e+03
1.835937500000000000e+03
1.187500000000000000e+03
1.203125000000000000e+03
1.808593750000000000e+03
6.718750000000000000e+02
6.718750000000000000e+02
1.453125000000000000e+03
7.304687500000000000e+02
7.343750000000000000e+02
7.460937500000000000e+02
7.812500000000000000e+02
1.457031250000000000e+03
7.617187500000000000e+02
7.148437500000000000e+02
7.109375000000000000e+02
7.109375000000000000e+02
1.332031250000000000e+03
1.312500000000000000e+03
1.902343750000000000e+03
2.015625000000000000e+03
1.375000000000000000e+03
7.031250000000000000e+02
1.410156250000000000e+03
7.070312500000000000e+02
7.148437500000000000e+02
6.875000000000000000e+02
7.070312500000000000e+02
7.109375000000000000e+02
7.148437500000000000e+02
6.953125000000000000e+02
6.835937500000000000e+02
6.875000000000000000e+02
6.757812500000000000e+02
6.679687500000000000e+02
6.796875000000000000e+02
6.953125000000000000e+02
6.992187500000000000e+02
6.796875000000000000e+02
7.226562500000000000e+02
7.187500000000000000e+02
7.304687500000000000e+02
7.070312500000000000e+02
6.992187500000000000e+02
7.031250000000000000e+02
6.875000000000000000e+02
6.757812500000000000e+02
1.339843750000000000e+03
6.875000000000000000e+02
6.953125000000000000e+02
6.992187500000000000e+02
7.226562500000000000e+02
7.304687500000000000e+02
7.421875000000000000e+02
7.226562500000000000e+02
7.148437500000000000e+02
7.226562500000000000e+02
6.914062500000000000e+02
6.757812500000000000e+02
6.796875000000000000e+02
7.031250000000000000e+02
7.148437500000000000e+02
7.382812500000000000e+02
7.421875000000000000e+02
7.539062500000000000e+02
7.695312500000000000e+02
7.734375000000000000e+02
7.656250000000000000e+02
7.773437500000000000e+02
7.773437500000000000e+02
7.656250000000000000e+02
7.460937500000000000e+02
7.500000000000000000e+02
7.265625000000000000e+02
7.265625000000000000e+02
7.226562500000000000e+02
6.835937500000000000e+02
7.070312500000000000e+02
1.347656250000000000e+03
6.757812500000000000e+02
7.304687500000000000e+02
7.617187500000000000e+02
7.773437500000000000e+02
7.500000000000000000e+02
7.656250000000000000e+02
7.578125000000000000e+02
7.382812500000000000e+02
7.304687500000000000e+02
7.382812500000000000e+02
7.500000000000000000e+02
7.109375000000000000e+02
7.148437500000000000e+02
7.382812500000000000e+02
7.695312500000000000e+02
7.539062500000000000e+02
7.343750000000000000e+02
7.656250000000000000e+02
7.695312500000000000e+02
7.578125000000000000e+02
7.304687500000000000e+02
7.460937500000000000e+02
7.148437500000000000e+02
7.148437500000000000e+02
6.992187500000000000e+02
7.109375000000000000e+02
7.187500000000000000e+02
7.031250000000000000e+02
6.718750000000000000e+02
7.187500000000000000e+02
2.199218750000000000e+03
7.695312500000000000e+02
7.773437500000000000e+02
7.421875000000000000e+02
7.539062500000000000e+02
7.460937500000000000e+02
7.578125000000000000e+02
7.226562500000000000e+02
7.226562500000000000e+02
1.503906250000000000e+03
7.265625000000000000e+02
7.265625000000000000e+02
7.382812500000000000e+02
7.500000000000000000e+02
1.457031250000000000e+03
1.410156250000000000e+03
6.953125000000000000e+02
6.992187500000000000e+02
6.953125000000000000e+02
1.351562500000000000e+03
6.796875000000000000e+02
1.332031250000000000e+03
1.324218750000000000e+03
1.976562500000000000e+03
1.960937500000000000e+03
6.718750000000000000e+02
6.835937500000000000e+02
1.269531250000000000e+03
1.878906250000000000e+03
2.429687500000000000e+03
1.242187500000000000e+03
1.246093750000000000e+03
2.515625000000000000e+03
6.796875000000000000e+02
7.187500000000000000e+02
7.265625000000000000e+02
7.421875000000000000e+02
7.031250000000000000e+02
6.679687500000000000e+02
6.875000000000000000e+02
7.226562500000000000e+02
7.695312500000000000e+02
7.890625000000000000e+02
8.007812500000000000e+02
8.046875000000000000e+02
7.343750000000000000e+02
7.109375000000000000e+02
7.500000000000000000e+02
7.929687500000000000e+02
8.320312500000000000e+02
8.359375000000000000e+02
8.046875000000000000e+02
7.968750000000000000e+02
8.281250000000000000e+02
8.320312500000000000e+02
8.359375000000000000e+02
8.007812500000000000e+02
7.773437500000000000e+02
8.085937500000000000e+02
7.968750000000000000e+02
8.125000000000000000e+02
7.617187500000000000e+02
7.890625000000000000e+02
8.515625000000000000e+02
8.554687500000000000e+02
8.476562500000000000e+02
8.125000000000000000e+02
8.398437500000000000e+02
8.789062500000000000e+02
8.476562500000000000e+02
8.359375000000000000e+02
7.851562500000000000e+02
3.359375000000000000e+03
8.867187500000000000e+02
8.828125000000000000e+02
9.023437500000000000e+02
8.984375000000000000e+02
2.472656250000000000e+03
8.476562500000000000e+02
8.398437500000000000e+02
8.398437500000000000e+02
8.593750000000000000e+02
8.906250000000000000e+02
1.679687500000000000e+03
1.742187500000000000e+03
8.359375000000000000e+02
8.007812500000000000e+02
8.476562500000000000e+02
8.671875000000000000e+02
8.750000000000000000e+02
8.281250000000000000e+02
8.593750000000000000e+02
1.714843750000000000e+03
8.632812500000000000e+02
8.281250000000000000e+02
7.734375000000000000e+02
7.968750000000000000e+02
1.589843750000000000e+03
8.125000000000000000e+02
8.085937500000000000e+02
7.617187500000000000e+02
1.656250000000000000e+03
5.183593750000000000e+03
8.750000000000000000e+02
4.339843750000000000e+03
8.515625000000000000e+02
8.828125000000000000e+02
1.757812500000000000e+03
8.828125000000000000e+02
8.945312500000000000e+02
1.750000000000000000e+03
1.777343750000000000e+03
8.867187500000000000e+02
8.710937500000000000e+02
8.554687500000000000e+02
8.085937500000000000e+02
8.203125000000000000e+02
8.398437500000000000e+02
8.671875000000000000e+02
1.656250000000000000e+03
8.828125000000000000e+02
9.140625000000000000e+02
9.375000000000000000e+02
8.906250000000000000e+02
9.257812500000000000e+02
9.140625000000000000e+02
9.062500000000000000e+02
8.710937500000000000e+02
8.750000000000000000e+02
8.554687500000000000e+02
8.515625000000000000e+02
8.242187500000000000e+02
8.164062500000000000e+02
7.656250000000000000e+02
7.890625000000000000e+02
8.281250000000000000e+02
8.554687500000000000e+02
8.867187500000000000e+02
8.398437500000000000e+02
8.750000000000000000e+02
8.906250000000000000e+02
8.671875000000000000e+02
8.984375000000000000e+02
9.062500000000000000e+02
8.906250000000000000e+02
8.515625000000000000e+02
8.671875000000000000e+02
8.750000000000000000e+02
8.398437500000000000e+02
8.320312500000000000e+02
8.476562500000000000e+02
7.929687500000000000e+02
7.617187500000000000e+02
7.695312500000000000e+02
7.890625000000000000e+02
8.828125000000000000e+02
9.101562500000000000e+02
8.554687500000000000e+02
8.554687500000000000e+02
8.750000000000000000e+02
8.593750000000000000e+02
8.164062500000000000e+02
8.359375000000000000e+02
8.359375000000000000e+02
8.515625000000000000e+02
8.320312500000000000e+02
8.007812500000000000e+02
1.644531250000000000e+03
8.398437500000000000e+02
8.437500000000000000e+02
7.929687500000000000e+02
7.695312500000000000e+02
7.890625000000000000e+02
7.968750000000000000e+02
8.632812500000000000e+02
8.476562500000000000e+02
8.281250000000000000e+02
8.554687500000000000e+02
8.398437500000000000e+02
8.671875000000000000e+02
8.476562500000000000e+02
8.398437500000000000e+02
8.203125000000000000e+02
7.812500000000000000e+02
7.070312500000000000e+02
7.539062500000000000e+02
7.148437500000000000e+02
7.343750000000000000e+02
8.281250000000000000e+02
9.023437500000000000e+02
8.867187500000000000e+02
1.785156250000000000e+03
8.867187500000000000e+02
4.812500000000000000e+03
4.277343750000000000e+03
8.320312500000000000e+02
7.890625000000000000e+02
7.265625000000000000e+02
7.304687500000000000e+02
7.187500000000000000e+02
7.031250000000000000e+02
7.578125000000000000e+02
8.476562500000000000e+02
8.085937500000000000e+02
8.398437500000000000e+02
8.046875000000000000e+02
7.656250000000000000e+02
8.164062500000000000e+02
1.675781250000000000e+03
8.320312500000000000e+02
8.437500000000000000e+02
8.632812500000000000e+02
8.437500000000000000e+02
8.437500000000000000e+02
8.125000000000000000e+02
8.164062500000000000e+02
8.320312500000000000e+02
8.476562500000000000e+02
8.281250000000000000e+02
8.085937500000000000e+02
8.203125000000000000e+02
8.476562500000000000e+02
8.671875000000000000e+02
8.632812500000000000e+02
8.593750000000000000e+02
8.164062500000000000e+02
1.613281250000000000e+03
8.164062500000000000e+02
8.242187500000000000e+02
8.632812500000000000e+02
8.710937500000000000e+02
8.671875000000000000e+02
1.734375000000000000e+03
8.789062500000000000e+02
8.750000000000000000e+02
8.203125000000000000e+02
8.203125000000000000e+02
8.515625000000000000e+02
8.515625000000000000e+02
8.359375000000000000e+02
8.515625000000000000e+02
7.890625000000000000e+02
7.695312500000000000e+02
7.929687500000000000e+02
1.578125000000000000e+03
8.476562500000000000e+02
8.789062500000000000e+02
3.429687500000000000e+03
8.281250000000000000e+02
8.085937500000000000e+02
8.398437500000000000e+02
8.515625000000000000e+02
1.750000000000000000e+03
8.789062500000000000e+02
8.867187500000000000e+02
2.464843750000000000e+03
1.574218750000000000e+03
1.550781250000000000e+03
7.578125000000000000e+02
7.382812500000000000e+02
6.796875000000000000e+02
6.757812500000000000e+02
6.796875000000000000e+02
6.757812500000000000e+02
1.320312500000000000e+03
1.285156250000000000e+03
1.160156250000000000e+03
1.640625000000000000e+03
1.062500000000000000e+03
1.136718750000000000e+03
1.257812500000000000e+03
1.371093750000000000e+03
6.953125000000000000e+02
7.187500000000000000e+02
7.460937500000000000e+02
8.281250000000000000e+02
8.789062500000000000e+02
7.617187500000000000e+02
1.484375000000000000e+03
8.085937500000000000e+02
6.992187500000000000e+02
2.378906250000000000e+03
7.734375000000000000e+02
7.460937500000000000e+02
6.914062500000000000e+02
6.757812500000000000e+02
6.875000000000000000e+02
7.187500000000000000e+02
7.265625000000000000e+02
7.187500000000000000e+02
6.992187500000000000e+02
7.343750000000000000e+02
7.382812500000000000e+02
7.148437500000000000e+02
1.332031250000000000e+03
6.914062500000000000e+02
1.359375000000000000e+03
6.718750000000000000e+02
7.226562500000000000e+02
8.710937500000000000e+02
9.023437500000000000e+02
8.281250000000000000e+02
8.164062500000000000e+02
8.671875000000000000e+02
8.320312500000000000e+02
7.460937500000000000e+02
7.265625000000000000e+02
7.734375000000000000e+02
8.125000000000000000e+02
7.851562500000000000e+02
7.578125000000000000e+02
7.773437500000000000e+02
8.242187500000000000e+02
8.164062500000000000e+02
7.695312500000000000e+02
8.242187500000000000e+02
9.062500000000000000e+02
1.746093750000000000e+03
8.398437500000000000e+02
8.828125000000000000e+02
8.867187500000000000e+02
8.437500000000000000e+02
8.828125000000000000e+02
8.789062500000000000e+02
8.710937500000000000e+02
8.281250000000000000e+02
8.593750000000000000e+02
8.710937500000000000e+02
8.281250000000000000e+02
8.281250000000000000e+02
8.789062500000000000e+02
8.750000000000000000e+02
8.359375000000000000e+02
8.671875000000000000e+02
8.984375000000000000e+02
8.828125000000000000e+02
8.593750000000000000e+02
9.218750000000000000e+02
8.593750000000000000e+02
8.671875000000000000e+02
1.585937500000000000e+03
7.812500000000000000e+02
7.304687500000000000e+02
7.031250000000000000e+02
7.187500000000000000e+02
2.093750000000000000e+03
6.718750000000000000e+02
1.269531250000000000e+03
1.281250000000000000e+03
1.300781250000000000e+03
6.835937500000000000e+02
7.187500000000000000e+02
7.695312500000000000e+02
7.851562500000000000e+02
7.929687500000000000e+02
8.046875000000000000e+02
8.164062500000000000e+02
8.164062500000000000e+02
8.007812500000000000e+02
7.968750000000000000e+02
7.851562500000000000e+02
7.968750000000000000e+02
8.007812500000000000e+02
7.890625000000000000e+02
7.851562500000000000e+02
7.851562500000000000e+02
7.734375000000000000e+02
7.734375000000000000e+02
7.500000000000000000e+02
7.578125000000000000e+02
7.656250000000000000e+02
7.656250000000000000e+02
7.109375000000000000e+02
7.382812500000000000e+02
7.148437500000000000e+02
7.382812500000000000e+02
7.500000000000000000e+02
7.421875000000000000e+02
6.992187500000000000e+02
7.109375000000000000e+02
7.148437500000000000e+02
6.757812500000000000e+02
6.992187500000000000e+02
6.835937500000000000e+02
7.109375000000000000e+02
7.109375000000000000e+02
6.992187500000000000e+02
7.109375000000000000e+02
7.265625000000000000e+02
7.265625000000000000e+02
7.226562500000000000e+02
6.992187500000000000e+02
6.835937500000000000e+02
6.796875000000000000e+02
7.031250000000000000e+02
7.343750000000000000e+02
7.578125000000000000e+02
7.421875000000000000e+02
7.890625000000000000e+02
7.812500000000000000e+02
8.007812500000000000e+02
7.851562500000000000e+02
8.007812500000000000e+02
1.535156250000000000e+03
7.460937500000000000e+02
7.304687500000000000e+02
7.226562500000000000e+02
7.148437500000000000e+02
1.386718750000000000e+03
6.679687500000000000e+02
6.757812500000000000e+02
6.679687500000000000e+02
1.957031250000000000e+03
1.371093750000000000e+03
7.382812500000000000e+02
7.773437500000000000e+02
1.558593750000000000e+03
7.890625000000000000e+02
7.851562500000000000e+02
7.734375000000000000e+02
7.382812500000000000e+02
7.070312500000000000e+02
6.914062500000000000e+02
6.757812500000000000e+02
6.914062500000000000e+02
6.992187500000000000e+02
6.992187500000000000e+02
7.148437500000000000e+02
7.109375000000000000e+02
7.109375000000000000e+02
7.382812500000000000e+02
7.421875000000000000e+02
7.695312500000000000e+02
7.734375000000000000e+02
7.617187500000000000e+02
7.695312500000000000e+02
7.617187500000000000e+02
7.656250000000000000e+02
7.500000000000000000e+02
7.421875000000000000e+02
7.304687500000000000e+02
7.148437500000000000e+02
6.992187500000000000e+02
6.992187500000000000e+02
6.875000000000000000e+02
6.914062500000000000e+02
6.992187500000000000e+02
7.031250000000000000e+02
7.460937500000000000e+02
8.046875000000000000e+02
7.656250000000000000e+02
7.578125000000000000e+02
7.734375000000000000e+02
7.812500000000000000e+02
7.617187500000000000e+02
7.304687500000000000e+02
7.578125000000000000e+02
7.265625000000000000e+02
7.382812500000000000e+02
7.109375000000000000e+02
7.070312500000000000e+02
7.343750000000000000e+02
7.773437500000000000e+02
8.007812500000000000e+02
8.085937500000000000e+02
8.164062500000000000e+02
8.437500000000000000e+02
8.281250000000000000e+02
8.164062500000000000e+02
7.890625000000000000e+02
7.773437500000000000e+02
7.578125000000000000e+02
7.421875000000000000e+02
7.382812500000000000e+02
7.304687500000000000e+02
7.031250000000000000e+02
6.953125000000000000e+02
6.992187500000000000e+02
7.070312500000000000e+02
7.265625000000000000e+02
7.187500000000000000e+02
7.343750000000000000e+02
7.460937500000000000e+02
7.851562500000000000e+02
8.242187500000000000e+02
8.242187500000000000e+02
8.320312500000000000e+02
8.242187500000000000e+02
8.164062500000000000e+02
7.968750000000000000e+02
7.812500000000000000e+02
7.773437500000000000e+02
1.550781250000000000e+03
7.460937500000000000e+02
1.445312500000000000e+03
1.468750000000000000e+03
7.304687500000000000e+02
7.031250000000000000e+02
7.265625000000000000e+02
7.187500000000000000e+02
6.992187500000000000e+02
7.226562500000000000e+02
1.375000000000000000e+03
6.757812500000000000e+02
6.992187500000000000e+02
7.148437500000000000e+02
7.187500000000000000e+02
7.304687500000000000e+02
7.226562500000000000e+02
6.835937500000000000e+02
6.914062500000000000e+02
6.914062500000000000e+02
7.031250000000000000e+02
7.187500000000000000e+02
1.378906250000000000e+03
7.070312500000000000e+02
1.511718750000000000e+03
7.812500000000000000e+02
7.226562500000000000e+02
7.304687500000000000e+02
7.382812500000000000e+02
7.734375000000000000e+02
7.812500000000000000e+02
7.460937500000000000e+02
7.539062500000000000e+02
7.187500000000000000e+02
6.835937500000000000e+02
6.757812500000000000e+02
1.910156250000000000e+03
1.355468750000000000e+03
6.835937500000000000e+02
7.109375000000000000e+02
7.656250000000000000e+02
7.851562500000000000e+02
7.617187500000000000e+02
7.890625000000000000e+02
7.968750000000000000e+02
7.851562500000000000e+02
7.578125000000000000e+02
7.773437500000000000e+02
7.656250000000000000e+02
7.695312500000000000e+02
7.460937500000000000e+02
7.539062500000000000e+02
1.535156250000000000e+03
7.382812500000000000e+02
7.773437500000000000e+02
7.539062500000000000e+02
7.656250000000000000e+02
7.617187500000000000e+02
7.031250000000000000e+02
6.796875000000000000e+02
6.875000000000000000e+02
6.875000000000000000e+02
7.226562500000000000e+02
1.500000000000000000e+03
7.656250000000000000e+02
7.226562500000000000e+02
7.539062500000000000e+02
7.421875000000000000e+02
7.187500000000000000e+02
6.718750000000000000e+02
6.992187500000000000e+02
6.914062500000000000e+02
1.324218750000000000e+03
1.320312500000000000e+03
7.031250000000000000e+02
1.488281250000000000e+03
7.773437500000000000e+02
7.460937500000000000e+02
7.773437500000000000e+02
7.695312500000000000e+02
7.695312500000000000e+02
7.890625000000000000e+02
7.851562500000000000e+02
7.500000000000000000e+02
7.734375000000000000e+02
7.734375000000000000e+02
7.500000000000000000e+02
7.343750000000000000e+02
7.539062500000000000e+02
7.109375000000000000e+02
7.070312500000000000e+02
7.148437500000000000e+02
7.304687500000000000e+02
7.187500000000000000e+02
7.148437500000000000e+02
7.382812500000000000e+02
7.304687500000000000e+02
7.148437500000000000e+02
7.656250000000000000e+02
7.578125000000000000e+02
7.187500000000000000e+02
7.421875000000000000e+02
7.343750000000000000e+02
7.187500000000000000e+02
7.265625000000000000e+02
7.226562500000000000e+02
7.304687500000000000e+02
7.031250000000000000e+02
1.378906250000000000e+03
6.875000000000000000e+02
1.343750000000000000e+03
6.757812500000000000e+02
1.949218750000000000e+03
1.894531250000000000e+03
1.238281250000000000e+03
1.210937500000000000e+03
1.230468750000000000e+03
1.195312500000000000e+03
1.230468750000000000e+03
1.878906250000000000e+03
1.273437500000000000e+03
1.246093750000000000e+03
1.304687500000000000e+03
1.367187500000000000e+03
7.304687500000000000e+02
7.031250000000000000e+02
7.031250000000000000e+02
7.304687500000000000e+02
7.343750000000000000e+02
6.992187500000000000e+02
6.992187500000000000e+02
6.992187500000000000e+02
7.226562500000000000e+02
7.382812500000000000e+02
7.148437500000000000e+02
7.539062500000000000e+02
1.453125000000000000e+03
7.070312500000000000e+02
1.449218750000000000e+03
8.046875000000000000e+02
8.710937500000000000e+02
1.671875000000000000e+03
8.515625000000000000e+02
8.398437500000000000e+02
8.007812500000000000e+02
8.242187500000000000e+02
8.320312500000000000e+02
8.085937500000000000e+02
8.125000000000000000e+02
7.851562500000000000e+02
7.539062500000000000e+02
7.460937500000000000e+02
7.851562500000000000e+02
7.656250000000000000e+02
8.398437500000000000e+02
8.867187500000000000e+02
8.710937500000000000e+02
8.085937500000000000e+02
8.281250000000000000e+02
8.046875000000000000e+02
7.656250000000000000e+02
7.656250000000000000e+02
7.890625000000000000e+02
8.007812500000000000e+02
7.656250000000000000e+02
7.734375000000000000e+02
8.046875000000000000e+02
8.359375000000000000e+02
8.359375000000000000e+02
8.671875000000000000e+02
8.906250000000000000e+02
8.398437500000000000e+02
8.281250000000000000e+02
7.656250000000000000e+02
7.031250000000000000e+02
6.914062500000000000e+02
6.835937500000000000e+02
1.320312500000000000e+03
6.796875000000000000e+02
7.460937500000000000e+02
7.460937500000000000e+02
8.242187500000000000e+02
8.789062500000000000e+02
8.945312500000000000e+02
8.359375000000000000e+02
8.593750000000000000e+02
8.515625000000000000e+02
8.632812500000000000e+02
8.085937500000000000e+02
8.320312500000000000e+02
8.281250000000000000e+02
8.437500000000000000e+02
8.359375000000000000e+02
9.062500000000000000e+02
9.335937500000000000e+02
8.476562500000000000e+02
8.906250000000000000e+02
9.335937500000000000e+02
9.257812500000000000e+02
8.789062500000000000e+02
9.257812500000000000e+02
9.140625000000000000e+02
9.062500000000000000e+02
9.023437500000000000e+02
8.320312500000000000e+02
8.554687500000000000e+02
8.593750000000000000e+02
8.359375000000000000e+02
8.164062500000000000e+02
8.593750000000000000e+02
8.945312500000000000e+02
9.101562500000000000e+02
9.179687500000000000e+02
9.140625000000000000e+02
9.062500000000000000e+02
9.023437500000000000e+02
8.671875000000000000e+02
8.359375000000000000e+02
8.398437500000000000e+02
8.046875000000000000e+02
8.164062500000000000e+02
8.476562500000000000e+02
