8.320312500000000000e+02
8.750000000000000000e+02
8.476562500000000000e+02
8.164062500000000000e+02
8.046875000000000000e+02
8.515625000000000000e+02
1.675781250000000000e+03
8.164062500000000000e+02
8.710937500000000000e+02
8.359375000000000000e+02
7.929687500000000000e+02
8.242187500000000000e+02
9.335937500000000000e+02
7.304687500000000000e+02
8.750000000000000000e+02
1.050781250000000000e+03
1.476562500000000000e+03
8.398437500000000000e+02
8.789062500000000000e+02
7.226562500000000000e+02
9.492187500000000000e+02
6.835937500000000000e+02
8.593750000000000000e+02
1.109375000000000000e+03
8.242187500000000000e+02
8.398437500000000000e+02
1.078125000000000000e+03
7.031250000000000000e+02
1.187500000000000000e+03
8.125000000000000000e+02
8.320312500000000000e+02
1.566406250000000000e+03
1.289062500000000000e+03
1.140625000000000000e+03
1.347656250000000000e+03
9.140625000000000000e+02
7.382812500000000000e+02
8.671875000000000000e+02
8.632812500000000000e+02
6.992187500000000000e+02
1.019531250000000000e+03
8.828125000000000000e+02
7.968750000000000000e+02
8.164062500000000000e+02
8.750000000000000000e+02
8.593750000000000000e+02
7.304687500000000000e+02
6.796875000000000000e+02
6.718750000000000000e+02
1.214843750000000000e+03
7.656250000000000000e+02
1.113281250000000000e+03
8.671875000000000000e+02
8.515625000000000000e+02
7.851562500000000000e+02
7.656250000000000000e+02
8.476562500000000000e+02
8.671875000000000000e+02
8.515625000000000000e+02
8.320312500000000000e+02
8.984375000000000000e+02
1.417968750000000000e+03
8.945312500000000000e+02
8.046875000000000000e+02
7.460937500000000000e+02
1.183593750000000000e+03
8.046875000000000000e+02
7.773437500000000000e+02
9.687500000000000000e+02
7.500000000000000000e+02
8.007812500000000000e+02
7.851562500000000000e+02
8.281250000000000000e+02
6.679687500000000000e+02
7.695312500000000000e+02
9.257812500000000000e+02
7.968750000000000000e+02
6.914062500000000000e+02
8.164062500000000000e+02
1.015625000000000000e+03
8.984375000000000000e+02
1.382812500000000000e+03
1.378906250000000000e+03
1.156250000000000000e+03
7.968750000000000000e+02
8.007812500000000000e+02
7.968750000000000000e+02
9.179687500000000000e+02
7.968750000000000000e+02
8.164062500000000000e+02
8.203125000000000000e+02
8.554687500000000000e+02
9.414062500000000000e+02
9.648437500000000000e+02
8.828125000000000000e+02
9.023437500000000000e+02
9.335937500000000000e+02
9.296875000000000000e+02
9.492187500000000000e+02
9.023437500000000000e+02
9.296875000000000000e+02
9.335937500000000000e+02
8.476562500000000000e+02
1.136718750000000000e+03
6.992187500000000000e+02
8.164062500000000000e+02
1.015625000000000000e+03
8.671875000000000000e+02
8.476562500000000000e+02
1.238281250000000000e+03
6.757812500000000000e+02
7.500000000000000000e+02
1.167968750000000000e+03
1.035156250000000000e+03
7.792968750000000000e+04
1.281250000000000000e+03
9.453125000000000000e+02
8.750000000000000000e+02
8.906250000000000000e+02
9.179687500000000000e+02
8.632812500000000000e+02
1.101562500000000000e+03
7.343750000000000000e+02
1.214843750000000000e+03
1.066406250000000000e+03
7.851562500000000000e+02
1.089843750000000000e+03
6.914062500000000000e+02
7.695312500000000000e+02
1.292968750000000000e+03
1.015625000000000000e+03
8.554687500000000000e+02
9.296875000000000000e+02
9.843750000000000000e+02
1.035156250000000000e+03
7.539062500000000000e+02
9.453125000000000000e+02
8.164062500000000000e+02
8.828125000000000000e+02
9.960937500000000000e+02
7.851562500000000000e+02
8.125000000000000000e+02
8.593750000000000000e+02
8.632812500000000000e+02
1.730468750000000000e+03
1.214843750000000000e+03
9.179687500000000000e+02
9.023437500000000000e+02
8.632812500000000000e+02
8.320312500000000000e+02
8.867187500000000000e+02
1.179687500000000000e+03
1.199218750000000000e+03
1.066406250000000000e+03
8.671875000000000000e+02
8.828125000000000000e+02
8.671875000000000000e+02
9.179687500000000000e+02
8.476562500000000000e+02
1.703125000000000000e+03
8.476562500000000000e+02
8.515625000000000000e+02
7.812500000000000000e+02
7.656250000000000000e+02
7.539062500000000000e+02
7.812500000000000000e+02
7.812500000000000000e+02
7.656250000000000000e+02
8.007812500000000000e+02
7.851562500000000000e+02
1.164062500000000000e+03
1.265625000000000000e+03
7.500000000000000000e+02
9.335937500000000000e+02
8.476562500000000000e+02
1.070312500000000000e+03
8.554687500000000000e+02
1.457031250000000000e+03
1.015625000000000000e+03
1.511718750000000000e+03
1.253906250000000000e+03
8.007812500000000000e+02
8.164062500000000000e+02
8.281250000000000000e+02
8.867187500000000000e+02
8.320312500000000000e+02
8.320312500000000000e+02
8.359375000000000000e+02
8.320312500000000000e+02
8.476562500000000000e+02
8.164062500000000000e+02
8.164062500000000000e+02
7.851562500000000000e+02
7.968750000000000000e+02
8.164062500000000000e+02
1.164062500000000000e+03
8.671875000000000000e+02
1.152343750000000000e+03
7.812500000000000000e+02
8.320312500000000000e+02
8.007812500000000000e+02
8.359375000000000000e+02
7.460937500000000000e+02
8.007812500000000000e+02
7.656250000000000000e+02
8.164062500000000000e+02
7.617187500000000000e+02
8.437500000000000000e+02
1.500000000000000000e+03
7.656250000000000000e+02
7.734375000000000000e+02
1.578125000000000000e+03
8.007812500000000000e+02
8.164062500000000000e+02
8.164062500000000000e+02
1.617187500000000000e+03
7.968750000000000000e+02
7.851562500000000000e+02
8.203125000000000000e+02
8.437500000000000000e+02
1.308593750000000000e+03
7.304687500000000000e+02
1.000000000000000000e+03
6.835937500000000000e+02
1.390625000000000000e+03
1.320312500000000000e+03
8.007812500000000000e+02
7.890625000000000000e+02
7.734375000000000000e+02
7.968750000000000000e+02
7.851562500000000000e+02
8.164062500000000000e+02
7.929687500000000000e+02
7.929687500000000000e+02
8.320312500000000000e+02
8.320312500000000000e+02
8.515625000000000000e+02
8.476562500000000000e+02
7.851562500000000000e+02
8.398437500000000000e+02
8.437500000000000000e+02
8.476562500000000000e+02
1.199218750000000000e+03
1.351562500000000000e+03
8.320312500000000000e+02
8.281250000000000000e+02
8.437500000000000000e+02
7.070312500000000000e+02
9.062500000000000000e+02
6.835937500000000000e+02
7.500000000000000000e+02
8.085937500000000000e+02
7.929687500000000000e+02
8.437500000000000000e+02
8.398437500000000000e+02
1.652343750000000000e+03
1.246093750000000000e+03
1.234375000000000000e+03
8.164062500000000000e+02
8.671875000000000000e+02
8.164062500000000000e+02
8.320312500000000000e+02
8.515625000000000000e+02
8.476562500000000000e+02
8.164062500000000000e+02
1.546875000000000000e+03
6.992187500000000000e+02
1.234375000000000000e+03
8.164062500000000000e+02
8.671875000000000000e+02
8.125000000000000000e+02
9.335937500000000000e+02
8.320312500000000000e+02
7.343750000000000000e+02
9.453125000000000000e+02
7.226562500000000000e+02
8.320312500000000000e+02
8.320312500000000000e+02
8.164062500000000000e+02
8.007812500000000000e+02
1.515625000000000000e+03
8.867187500000000000e+02
1.421875000000000000e+03
1.003906250000000000e+03
2.320312500000000000e+03
6.992187500000000000e+02
7.031250000000000000e+02
8.437500000000000000e+02
1.339843750000000000e+03
9.101562500000000000e+02
1.308593750000000000e+03
8.437500000000000000e+02
8.671875000000000000e+02
1.296875000000000000e+03
7.812500000000000000e+02
1.148437500000000000e+03
8.164062500000000000e+02
7.656250000000000000e+02
7.421875000000000000e+02
8.320312500000000000e+02
8.085937500000000000e+02
8.671875000000000000e+02
7.500000000000000000e+02
8.125000000000000000e+02
7.695312500000000000e+02
8.320312500000000000e+02
8.007812500000000000e+02
8.242187500000000000e+02
7.929687500000000000e+02
8.125000000000000000e+02
8.320312500000000000e+02
6.679687500000000000e+02
9.492187500000000000e+02
8.515625000000000000e+02
8.281250000000000000e+02
1.253906250000000000e+03
6.796875000000000000e+02
7.812500000000000000e+02
1.265625000000000000e+03
1.105468750000000000e+03
9.140625000000000000e+02
1.000000000000000000e+03
7.695312500000000000e+02
8.007812500000000000e+02
1.195312500000000000e+03
1.011718750000000000e+03
8.593750000000000000e+02
9.726562500000000000e+02
8.125000000000000000e+02
8.125000000000000000e+02
9.414062500000000000e+02
7.304687500000000000e+02
7.851562500000000000e+02
8.164062500000000000e+02
8.320312500000000000e+02
8.984375000000000000e+02
8.242187500000000000e+02
8.867187500000000000e+02
8.125000000000000000e+02
8.398437500000000000e+02
8.593750000000000000e+02
9.882812500000000000e+02
6.992187500000000000e+02
8.125000000000000000e+02
8.359375000000000000e+02
7.304687500000000000e+02
9.179687500000000000e+02
1.003906250000000000e+03
1.496093750000000000e+03
8.203125000000000000e+02
2.109375000000000000e+03
7.070312500000000000e+02
1.457031250000000000e+03
1.156250000000000000e+03
9.179687500000000000e+02
1.046875000000000000e+03
6.419531250000000000e+04
8.281250000000000000e+02
1.250000000000000000e+03
8.320312500000000000e+02
1.468750000000000000e+03
8.632812500000000000e+02
1.175781250000000000e+03
1.339843750000000000e+03
8.671875000000000000e+02
8.593750000000000000e+02
8.906250000000000000e+02
8.671875000000000000e+02
8.632812500000000000e+02
7.187500000000000000e+02
9.726562500000000000e+02
8.593750000000000000e+02
6.835937500000000000e+02
7.656250000000000000e+02
1.468750000000000000e+03
1.312500000000000000e+03
1.265625000000000000e+03
8.945312500000000000e+02
1.464843750000000000e+03
1.324218750000000000e+03
9.648437500000000000e+02
6.992187500000000000e+02
1.269531250000000000e+03
1.441406250000000000e+03
8.007812500000000000e+02
9.179687500000000000e+02
8.828125000000000000e+02
8.984375000000000000e+02
7.500000000000000000e+02
9.492187500000000000e+02
7.812500000000000000e+02
7.851562500000000000e+02
1.597656250000000000e+03
1.000000000000000000e+03
1.527343750000000000e+03
9.023437500000000000e+02
7.148437500000000000e+02
8.320312500000000000e+02
1.136718750000000000e+03
8.164062500000000000e+02
9.453125000000000000e+02
6.718750000000000000e+02
8.476562500000000000e+02
1.332031250000000000e+03
7.460937500000000000e+02
8.554687500000000000e+02
6.796875000000000000e+02
1.035156250000000000e+03
8.632812500000000000e+02
1.175781250000000000e+03
7.070312500000000000e+02
