8.671875000000000000e+02
8.085937500000000000e+02
8.476562500000000000e+02
8.710937500000000000e+02
8.632812500000000000e+02
8.828125000000000000e+02
8.476562500000000000e+02
1.691406250000000000e+03
8.046875000000000000e+02
8.281250000000000000e+02
1.632812500000000000e+03
7.968750000000000000e+02
8.398437500000000000e+02
8.671875000000000000e+02
8.828125000000000000e+02
8.828125000000000000e+02
8.906250000000000000e+02
8.515625000000000000e+02
8.164062500000000000e+02
1.667968750000000000e+03
8.359375000000000000e+02
8.359375000000000000e+02
1.667968750000000000e+03
8.007812500000000000e+02
7.890625000000000000e+02
7.929687500000000000e+02
7.773437500000000000e+02
8.085937500000000000e+02
8.164062500000000000e+02
8.398437500000000000e+02
8.164062500000000000e+02
8.710937500000000000e+02
8.593750000000000000e+02
8.710937500000000000e+02
8.437500000000000000e+02
8.515625000000000000e+02
8.671875000000000000e+02
8.359375000000000000e+02
8.632812500000000000e+02
8.554687500000000000e+02
8.554687500000000000e+02
8.203125000000000000e+02
8.125000000000000000e+02
8.125000000000000000e+02
7.812500000000000000e+02
7.968750000000000000e+02
8.046875000000000000e+02
7.812500000000000000e+02
8.085937500000000000e+02
7.929687500000000000e+02
7.382812500000000000e+02
7.421875000000000000e+02
7.226562500000000000e+02
7.148437500000000000e+02
6.835937500000000000e+02
6.875000000000000000e+02
6.796875000000000000e+02
1.316406250000000000e+03
6.679687500000000000e+02
1.304687500000000000e+03
1.289062500000000000e+03
6.757812500000000000e+02
6.718750000000000000e+02
6.875000000000000000e+02
7.343750000000000000e+02
7.421875000000000000e+02
7.617187500000000000e+02
7.539062500000000000e+02
7.812500000000000000e+02
7.968750000000000000e+02
7.695312500000000000e+02
7.968750000000000000e+02
8.007812500000000000e+02
7.890625000000000000e+02
7.812500000000000000e+02
7.812500000000000000e+02
7.851562500000000000e+02
7.656250000000000000e+02
7.578125000000000000e+02
7.460937500000000000e+02
7.070312500000000000e+02
7.070312500000000000e+02
7.187500000000000000e+02
7.265625000000000000e+02
6.953125000000000000e+02
1.324218750000000000e+03
6.679687500000000000e+02
6.875000000000000000e+02
7.265625000000000000e+02
7.695312500000000000e+02
7.539062500000000000e+02
7.656250000000000000e+02
7.695312500000000000e+02
7.851562500000000000e+02
7.539062500000000000e+02
7.539062500000000000e+02
7.500000000000000000e+02
7.148437500000000000e+02
7.226562500000000000e+02
7.187500000000000000e+02
6.992187500000000000e+02
7.187500000000000000e+02
7.187500000000000000e+02
1.492187500000000000e+03
7.382812500000000000e+02
7.812500000000000000e+02
7.695312500000000000e+02
7.617187500000000000e+02
7.304687500000000000e+02
7.500000000000000000e+02
7.421875000000000000e+02
7.460937500000000000e+02
7.187500000000000000e+02
7.343750000000000000e+02
7.460937500000000000e+02
7.148437500000000000e+02
6.875000000000000000e+02
7.109375000000000000e+02
1.324218750000000000e+03
1.308593750000000000e+03
1.316406250000000000e+03
1.292968750000000000e+03
1.347656250000000000e+03
6.875000000000000000e+02
1.312500000000000000e+03
6.914062500000000000e+02
7.343750000000000000e+02
7.578125000000000000e+02
7.812500000000000000e+02
7.382812500000000000e+02
7.890625000000000000e+02
8.281250000000000000e+02
8.789062500000000000e+02
8.828125000000000000e+02
8.437500000000000000e+02
8.085937500000000000e+02
8.164062500000000000e+02
8.085937500000000000e+02
8.320312500000000000e+02
8.398437500000000000e+02
8.007812500000000000e+02
8.398437500000000000e+02
8.320312500000000000e+02
9.335937500000000000e+02
2.636718750000000000e+03
9.179687500000000000e+02
8.984375000000000000e+02
8.320312500000000000e+02
7.929687500000000000e+02
7.929687500000000000e+02
7.890625000000000000e+02
8.164062500000000000e+02
8.593750000000000000e+02
8.554687500000000000e+02
7.890625000000000000e+02
8.007812500000000000e+02
8.515625000000000000e+02
8.671875000000000000e+02
8.789062500000000000e+02
8.945312500000000000e+02
8.242187500000000000e+02
8.359375000000000000e+02
8.632812500000000000e+02
8.750000000000000000e+02
8.281250000000000000e+02
8.203125000000000000e+02
8.710937500000000000e+02
8.984375000000000000e+02
8.437500000000000000e+02
8.750000000000000000e+02
9.570312500000000000e+02
9.531250000000000000e+02
9.023437500000000000e+02
8.710937500000000000e+02
9.023437500000000000e+02
8.828125000000000000e+02
8.320312500000000000e+02
8.476562500000000000e+02
8.906250000000000000e+02
9.062500000000000000e+02
8.984375000000000000e+02
8.515625000000000000e+02
8.593750000000000000e+02
8.789062500000000000e+02
9.101562500000000000e+02
9.218750000000000000e+02
8.984375000000000000e+02
8.554687500000000000e+02
8.906250000000000000e+02
9.101562500000000000e+02
8.906250000000000000e+02
8.632812500000000000e+02
8.867187500000000000e+02
9.140625000000000000e+02
9.335937500000000000e+02
9.140625000000000000e+02
8.710937500000000000e+02
9.140625000000000000e+02
9.257812500000000000e+02
9.257812500000000000e+02
9.140625000000000000e+02
9.140625000000000000e+02
8.281250000000000000e+02
8.398437500000000000e+02
8.593750000000000000e+02
8.359375000000000000e+02
8.125000000000000000e+02
8.125000000000000000e+02
8.242187500000000000e+02
8.359375000000000000e+02
8.632812500000000000e+02
1.812500000000000000e+03
9.023437500000000000e+02
8.867187500000000000e+02
8.281250000000000000e+02
8.398437500000000000e+02
8.242187500000000000e+02
8.437500000000000000e+02
8.398437500000000000e+02
8.750000000000000000e+02
9.218750000000000000e+02
1.839843750000000000e+03
9.062500000000000000e+02
9.023437500000000000e+02
9.023437500000000000e+02
8.437500000000000000e+02
8.281250000000000000e+02
8.437500000000000000e+02
8.671875000000000000e+02
8.515625000000000000e+02
8.945312500000000000e+02
8.945312500000000000e+02
8.750000000000000000e+02
8.710937500000000000e+02
8.906250000000000000e+02
8.593750000000000000e+02
8.320312500000000000e+02
7.812500000000000000e+02
7.734375000000000000e+02
7.382812500000000000e+02
7.304687500000000000e+02
7.226562500000000000e+02
6.914062500000000000e+02
6.679687500000000000e+02
6.796875000000000000e+02
1.324218750000000000e+03
1.269531250000000000e+03
1.281250000000000000e+03
1.230468750000000000e+03
1.410156250000000000e+03
7.382812500000000000e+02
7.070312500000000000e+02
6.914062500000000000e+02
7.148437500000000000e+02
7.500000000000000000e+02
7.812500000000000000e+02
7.617187500000000000e+02
8.203125000000000000e+02
8.632812500000000000e+02
8.828125000000000000e+02
8.476562500000000000e+02
8.476562500000000000e+02
8.554687500000000000e+02
8.593750000000000000e+02
8.242187500000000000e+02
8.515625000000000000e+02
8.671875000000000000e+02
8.515625000000000000e+02
8.515625000000000000e+02
8.828125000000000000e+02
8.828125000000000000e+02
8.476562500000000000e+02
9.023437500000000000e+02
9.101562500000000000e+02
8.632812500000000000e+02
8.593750000000000000e+02
8.828125000000000000e+02
8.750000000000000000e+02
8.398437500000000000e+02
8.750000000000000000e+02
8.476562500000000000e+02
7.929687500000000000e+02
7.734375000000000000e+02
8.671875000000000000e+02
7.968750000000000000e+02
7.968750000000000000e+02
8.984375000000000000e+02
9.492187500000000000e+02
8.476562500000000000e+02
7.968750000000000000e+02
8.007812500000000000e+02
7.812500000000000000e+02
8.828125000000000000e+02
9.453125000000000000e+02
9.843750000000000000e+02
8.984375000000000000e+02
9.140625000000000000e+02
9.375000000000000000e+02
8.945312500000000000e+02
8.710937500000000000e+02
8.945312500000000000e+02
8.828125000000000000e+02
8.320312500000000000e+02
8.789062500000000000e+02
9.101562500000000000e+02
8.632812500000000000e+02
8.945312500000000000e+02
8.437500000000000000e+02
8.007812500000000000e+02
8.554687500000000000e+02
8.554687500000000000e+02
8.046875000000000000e+02
7.500000000000000000e+02
7.382812500000000000e+02
7.265625000000000000e+02
7.343750000000000000e+02
7.187500000000000000e+02
6.953125000000000000e+02
6.679687500000000000e+02
1.308593750000000000e+03
6.757812500000000000e+02
8.046875000000000000e+02
8.593750000000000000e+02
8.984375000000000000e+02
9.062500000000000000e+02
8.867187500000000000e+02
9.179687500000000000e+02
9.296875000000000000e+02
9.296875000000000000e+02
9.101562500000000000e+02
9.335937500000000000e+02
9.101562500000000000e+02
8.906250000000000000e+02
8.593750000000000000e+02
8.398437500000000000e+02
8.203125000000000000e+02
7.734375000000000000e+02
8.320312500000000000e+02
8.125000000000000000e+02
8.398437500000000000e+02
8.359375000000000000e+02
8.515625000000000000e+02
8.671875000000000000e+02
8.750000000000000000e+02
8.476562500000000000e+02
8.593750000000000000e+02
8.476562500000000000e+02
8.125000000000000000e+02
1.527343750000000000e+03
7.343750000000000000e+02
7.343750000000000000e+02
7.343750000000000000e+02
7.500000000000000000e+02
7.343750000000000000e+02
7.226562500000000000e+02
7.500000000000000000e+02
7.656250000000000000e+02
7.695312500000000000e+02
7.656250000000000000e+02
7.695312500000000000e+02
7.929687500000000000e+02
8.125000000000000000e+02
7.812500000000000000e+02
1.562500000000000000e+03
7.812500000000000000e+02
7.578125000000000000e+02
7.773437500000000000e+02
7.734375000000000000e+02
7.773437500000000000e+02
7.734375000000000000e+02
7.539062500000000000e+02
7.382812500000000000e+02
7.460937500000000000e+02
7.500000000000000000e+02
7.382812500000000000e+02
7.382812500000000000e+02
7.343750000000000000e+02
7.460937500000000000e+02
7.343750000000000000e+02
7.460937500000000000e+02
7.734375000000000000e+02
7.890625000000000000e+02
1.582031250000000000e+03
7.421875000000000000e+02
7.539062500000000000e+02
7.304687500000000000e+02
7.070312500000000000e+02
6.992187500000000000e+02
7.148437500000000000e+02
7.500000000000000000e+02
7.578125000000000000e+02
7.812500000000000000e+02
7.890625000000000000e+02
8.085937500000000000e+02
8.046875000000000000e+02
8.085937500000000000e+02
8.007812500000000000e+02
7.695312500000000000e+02
7.500000000000000000e+02
7.343750000000000000e+02
7.109375000000000000e+02
7.070312500000000000e+02
7.031250000000000000e+02
7.148437500000000000e+02
1.281250000000000000e+03
1.226562500000000000e+03
1.234375000000000000e+03
6.875000000000000000e+02
7.382812500000000000e+02
8.164062500000000000e+02
7.695312500000000000e+02
7.890625000000000000e+02
8.085937500000000000e+02
8.046875000000000000e+02
7.851562500000000000e+02
7.968750000000000000e+02
7.226562500000000000e+02
1.425781250000000000e+03
7.460937500000000000e+02
7.109375000000000000e+02
6.835937500000000000e+02
6.835937500000000000e+02
6.953125000000000000e+02
7.031250000000000000e+02
1.339843750000000000e+03
6.796875000000000000e+02
7.031250000000000000e+02
6.835937500000000000e+02
6.835937500000000000e+02
7.148437500000000000e+02
7.109375000000000000e+02
7.343750000000000000e+02
7.421875000000000000e+02
7.148437500000000000e+02
7.421875000000000000e+02
7.500000000000000000e+02
7.617187500000000000e+02
7.617187500000000000e+02
7.968750000000000000e+02
1.550781250000000000e+03
7.773437500000000000e+02
8.281250000000000000e+02
8.046875000000000000e+02
7.929687500000000000e+02
8.203125000000000000e+02
7.890625000000000000e+02
7.421875000000000000e+02
7.070312500000000000e+02
7.148437500000000000e+02
7.812500000000000000e+02
8.515625000000000000e+02
8.515625000000000000e+02
1.726562500000000000e+03
9.218750000000000000e+02
8.750000000000000000e+02
8.750000000000000000e+02
8.828125000000000000e+02
8.476562500000000000e+02
8.281250000000000000e+02
8.515625000000000000e+02
8.828125000000000000e+02
1.734375000000000000e+03
9.101562500000000000e+02
8.867187500000000000e+02
9.179687500000000000e+02
9.140625000000000000e+02
8.437500000000000000e+02
8.945312500000000000e+02
