6.757812500000000000e+02
3.886718750000000000e+03
7.812500000000000000e+02
1.433593750000000000e+03
1.117187500000000000e+03
1.296875000000000000e+03
3.433593750000000000e+03
1.562500000000000000e+03
1.570312500000000000e+03
5.445312500000000000e+03
1.019531250000000000e+03
3.316406250000000000e+03
2.519531250000000000e+03
1.484375000000000000e+03
1.205468750000000000e+04
2.500000000000000000e+03
1.234375000000000000e+03
2.034375000000000000e+04
6.425781250000000000e+03
6.796875000000000000e+02
7.304687500000000000e+02
1.414062500000000000e+03
8.554687500000000000e+02
2.265625000000000000e+03
4.335937500000000000e+03
8.359375000000000000e+02
6.796875000000000000e+02
8.828125000000000000e+02
7.500000000000000000e+02
1.257812500000000000e+03
9.570312500000000000e+02
8.515625000000000000e+02
7.343750000000000000e+02
6.953125000000000000e+02
1.070312500000000000e+03
8.984375000000000000e+02
9.375000000000000000e+02
8.984375000000000000e+02
9.335937500000000000e+02
1.000000000000000000e+03
1.367187500000000000e+03
1.113281250000000000e+03
7.343750000000000000e+02
7.109375000000000000e+02
1.253906250000000000e+03
1.015625000000000000e+03
7.109375000000000000e+02
7.109375000000000000e+02
8.515625000000000000e+02
8.164062500000000000e+02
9.492187500000000000e+02
1.050781250000000000e+03
1.226562500000000000e+03
9.101562500000000000e+02
7.421875000000000000e+02
7.226562500000000000e+02
1.183593750000000000e+03
1.117187500000000000e+03
6.679687500000000000e+02
6.835937500000000000e+02
1.250000000000000000e+03
6.796875000000000000e+02
1.121093750000000000e+03
1.316406250000000000e+03
8.007812500000000000e+02
1.234375000000000000e+03
6.835937500000000000e+02
1.234375000000000000e+03
8.164062500000000000e+02
8.007812500000000000e+02
6.835937500000000000e+02
1.066406250000000000e+03
6.835937500000000000e+02
4.042968750000000000e+03
2.066406250000000000e+03
8.164062500000000000e+02
1.132812500000000000e+03
8.007812500000000000e+02
3.117187500000000000e+03
8.750000000000000000e+02
1.269531250000000000e+03
1.000000000000000000e+03
1.570312500000000000e+03
8.164062500000000000e+02
8.867187500000000000e+02
9.140625000000000000e+02
6.992187500000000000e+02
1.050781250000000000e+03
7.500000000000000000e+02
7.539062500000000000e+02
8.789062500000000000e+02
6.679687500000000000e+02
1.250000000000000000e+03
7.695312500000000000e+02
1.082031250000000000e+03
1.132812500000000000e+03
7.500000000000000000e+02
4.585937500000000000e+03
7.578125000000000000e+02
6.914062500000000000e+02
9.179687500000000000e+02
1.050781250000000000e+03
1.152343750000000000e+03
1.355468750000000000e+03
1.328125000000000000e+03
8.320312500000000000e+02
1.253906250000000000e+03
7.656250000000000000e+02
7.812500000000000000e+02
1.339843750000000000e+03
8.320312500000000000e+02
8.789062500000000000e+02
7.500000000000000000e+02
8.671875000000000000e+02
1.386718750000000000e+03
7.617187500000000000e+02
8.671875000000000000e+02
7.343750000000000000e+02
1.015625000000000000e+03
8.007812500000000000e+02
8.007812500000000000e+02
1.312500000000000000e+03
1.156250000000000000e+03
9.609375000000000000e+02
7.656250000000000000e+02
8.007812500000000000e+02
7.500000000000000000e+02
1.199218750000000000e+03
9.062500000000000000e+02
7.500000000000000000e+02
1.304687500000000000e+03
8.554687500000000000e+02
8.710937500000000000e+02
8.945312500000000000e+02
1.183593750000000000e+03
6.992187500000000000e+02
6.992187500000000000e+02
1.039062500000000000e+03
1.328125000000000000e+03
7.148437500000000000e+02
1.769531250000000000e+03
6.796875000000000000e+02
6.953125000000000000e+02
7.382812500000000000e+02
1.132812500000000000e+03
1.140625000000000000e+03
1.039062500000000000e+03
9.218750000000000000e+02
9.140625000000000000e+02
6.679687500000000000e+02
1.332031250000000000e+03
7.265625000000000000e+02
6.656250000000000000e+03
2.546875000000000000e+03
1.117187500000000000e+03
1.433593750000000000e+03
1.250000000000000000e+03
7.500000000000000000e+02
1.183593750000000000e+03
7.500000000000000000e+02
8.671875000000000000e+02
6.992187500000000000e+02
1.316406250000000000e+03
8.164062500000000000e+02
1.160156250000000000e+03
1.949218750000000000e+03
1.140625000000000000e+03
7.656250000000000000e+02
8.515625000000000000e+02
8.632812500000000000e+02
1.097656250000000000e+03
7.343750000000000000e+02
8.828125000000000000e+02
8.320312500000000000e+02
8.515625000000000000e+02
8.164062500000000000e+02
1.265625000000000000e+03
1.097656250000000000e+03
8.671875000000000000e+02
1.132812500000000000e+03
8.671875000000000000e+02
6.992187500000000000e+02
7.656250000000000000e+02
1.367187500000000000e+03
1.148437500000000000e+03
2.300781250000000000e+03
6.992187500000000000e+02
2.300781250000000000e+03
3.335937500000000000e+03
7.460937500000000000e+02
6.875000000000000000e+02
2.140625000000000000e+03
1.031250000000000000e+03
1.242187500000000000e+03
9.570312500000000000e+02
1.097656250000000000e+03
1.417968750000000000e+03
1.019531250000000000e+03
7.031250000000000000e+02
1.585937500000000000e+03
1.148437500000000000e+03
6.835937500000000000e+02
7.929687500000000000e+02
6.914062500000000000e+02
8.515625000000000000e+02
8.945312500000000000e+02
6.875000000000000000e+02
7.226562500000000000e+02
8.554687500000000000e+02
1.628906250000000000e+03
1.046875000000000000e+03
8.203125000000000000e+02
9.492187500000000000e+02
8.828125000000000000e+02
6.796875000000000000e+02
1.000000000000000000e+03
1.246093750000000000e+03
9.960937500000000000e+02
9.921875000000000000e+02
1.054687500000000000e+03
6.679687500000000000e+02
9.140625000000000000e+02
1.167968750000000000e+03
8.203125000000000000e+02
1.097656250000000000e+03
1.000000000000000000e+03
1.054687500000000000e+03
6.914062500000000000e+02
1.023437500000000000e+03
6.835937500000000000e+02
6.992187500000000000e+02
6.679687500000000000e+02
6.953125000000000000e+02
7.734375000000000000e+02
1.234375000000000000e+03
7.304687500000000000e+02
6.875000000000000000e+02
9.687500000000000000e+02
1.277343750000000000e+03
6.679687500000000000e+02
7.968750000000000000e+02
1.609375000000000000e+03
9.101562500000000000e+02
6.914062500000000000e+02
1.191406250000000000e+03
1.003906250000000000e+03
8.359375000000000000e+02
8.398437500000000000e+02
9.843750000000000000e+02
7.343750000000000000e+02
9.140625000000000000e+02
7.187500000000000000e+02
1.031250000000000000e+03
8.164062500000000000e+02
1.019531250000000000e+03
8.984375000000000000e+02
8.007812500000000000e+02
8.515625000000000000e+02
1.250000000000000000e+03
1.296875000000000000e+03
1.203125000000000000e+03
1.300781250000000000e+03
1.000000000000000000e+03
1.234375000000000000e+03
1.050781250000000000e+03
8.007812500000000000e+02
8.007812500000000000e+02
8.007812500000000000e+02
8.671875000000000000e+02
6.835937500000000000e+02
7.343750000000000000e+02
6.679687500000000000e+02
6.992187500000000000e+02
8.007812500000000000e+02
1.300781250000000000e+03
1.183593750000000000e+03
6.835937500000000000e+02
1.183593750000000000e+03
7.500000000000000000e+02
1.000000000000000000e+03
6.835937500000000000e+02
7.500000000000000000e+02
7.500000000000000000e+02
1.250000000000000000e+03
7.500000000000000000e+02
6.835937500000000000e+02
6.992187500000000000e+02
7.500000000000000000e+02
8.164062500000000000e+02
1.183593750000000000e+03
8.828125000000000000e+02
6.835937500000000000e+02
7.500000000000000000e+02
8.828125000000000000e+02
1.183593750000000000e+03
8.164062500000000000e+02
9.492187500000000000e+02
1.066406250000000000e+03
8.164062500000000000e+02
6.953125000000000000e+02
8.710937500000000000e+02
8.906250000000000000e+02
1.222656250000000000e+03
1.101562500000000000e+03
9.062500000000000000e+02
1.410156250000000000e+03
1.234375000000000000e+03
1.015625000000000000e+03
7.500000000000000000e+02
6.679687500000000000e+02
7.500000000000000000e+02
8.242187500000000000e+02
8.281250000000000000e+02
1.375000000000000000e+03
1.210937500000000000e+03
7.148437500000000000e+02
9.492187500000000000e+02
9.843750000000000000e+02
1.148437500000000000e+03
6.718750000000000000e+02
1.484375000000000000e+03
8.828125000000000000e+02
1.109375000000000000e+03
8.710937500000000000e+02
1.179687500000000000e+03
8.437500000000000000e+02
1.644531250000000000e+03
1.167968750000000000e+03
1.734375000000000000e+03
9.218750000000000000e+02
7.304687500000000000e+02
6.953125000000000000e+02
1.050781250000000000e+03
8.671875000000000000e+02
9.960937500000000000e+02
1.269531250000000000e+03
1.234375000000000000e+03
1.269531250000000000e+03
6.953125000000000000e+02
7.304687500000000000e+02
2.742187500000000000e+03
1.359375000000000000e+03
8.671875000000000000e+02
1.734375000000000000e+03
1.214843750000000000e+03
1.125000000000000000e+03
9.218750000000000000e+02
1.187500000000000000e+03
7.304687500000000000e+02
9.531250000000000000e+02
9.179687500000000000e+02
7.187500000000000000e+02
8.398437500000000000e+02
6.718750000000000000e+02
9.960937500000000000e+02
1.242187500000000000e+03
8.906250000000000000e+02
9.101562500000000000e+02
6.835937500000000000e+02
9.843750000000000000e+02
1.183593750000000000e+03
9.335937500000000000e+02
7.421875000000000000e+02
1.363281250000000000e+03
3.062500000000000000e+03
8.710937500000000000e+02
1.042968750000000000e+03
1.003906250000000000e+03
7.421875000000000000e+02
7.070312500000000000e+02
8.164062500000000000e+02
7.539062500000000000e+02
7.773437500000000000e+02
8.164062500000000000e+02
1.222656250000000000e+03
7.617187500000000000e+02
7.656250000000000000e+02
8.476562500000000000e+02
8.515625000000000000e+02
9.492187500000000000e+02
9.335937500000000000e+02
8.984375000000000000e+02
1.207031250000000000e+03
1.730468750000000000e+03
1.003906250000000000e+03
8.789062500000000000e+02
7.968750000000000000e+02
8.789062500000000000e+02
1.199218750000000000e+03
6.835937500000000000e+02
7.500000000000000000e+02
1.265625000000000000e+03
8.007812500000000000e+02
1.000000000000000000e+03
8.164062500000000000e+02
1.019531250000000000e+03
8.632812500000000000e+02
6.679687500000000000e+02
1.265625000000000000e+03
1.050781250000000000e+03
7.500000000000000000e+02
1.117187500000000000e+03
1.183593750000000000e+03
8.007812500000000000e+02
1.117187500000000000e+03
7.500000000000000000e+02
6.835937500000000000e+02
1.382812500000000000e+03
7.773437500000000000e+02
8.398437500000000000e+02
1.183593750000000000e+03
7.812500000000000000e+02
1.035156250000000000e+03
1.210937500000000000e+03
8.125000000000000000e+02
2.976562500000000000e+03
1.183593750000000000e+03
7.656250000000000000e+02
9.921875000000000000e+02
1.578125000000000000e+03
9.609375000000000000e+02
9.218750000000000000e+02
1.175781250000000000e+03
1.121093750000000000e+03
1.042968750000000000e+03
9.179687500000000000e+02
1.082031250000000000e+03
6.835937500000000000e+02
6.835937500000000000e+02
7.734375000000000000e+02
1.382812500000000000e+03
1.058593750000000000e+03
6.796875000000000000e+02
6.796875000000000000e+02
1.406250000000000000e+03
1.304687500000000000e+03
8.867187500000000000e+02
1.585937500000000000e+03
7.890625000000000000e+02
1.246093750000000000e+03
1.839843750000000000e+03
1.027343750000000000e+03
9.179687500000000000e+02
1.519531250000000000e+03
1.000000000000000000e+03
7.031250000000000000e+02
7.890625000000000000e+02
2.246093750000000000e+03
1.214843750000000000e+03
7.421875000000000000e+02
7.070312500000000000e+02
6.679687500000000000e+02
7.656250000000000000e+02
9.804687500000000000e+02
7.578125000000000000e+02
1.078125000000000000e+03
9.960937500000000000e+02
1.070312500000000000e+03
9.062500000000000000e+02
7.148437500000000000e+02
6.992187500000000000e+02
2.167968750000000000e+03
1.949218750000000000e+03
6.992187500000000000e+02
1.867187500000000000e+03
1.144531250000000000e+03
